,,,,,
TITLE,GLUCOSA 5,,,,
DATA TYPE,INFRARED SPECTRUM,,,,
ORIGIN,JASCO,,,,
OWNER,,,,,
DATE,19/02/15,,,,
TIME,16:01:16,,,,
SPECTROMETER/DATA SYSTEM,,,,,
LOCALE,1033,,,,
RESOLUTION,,,,,
DELTAX,0.964233,,,,
XUNITS,1/CM,,,,
YUNITS,ABSORBANCE,,,,
FIRSTX,399.1927,,,,
LASTX,4000.6047,,,,
NPOINTS,3736,,,,
FIRSTY,-0.00239,,,,
MAXY,1.11787,,,,
MINY,-0.00239,,,,
XYDATA,,,,,
399.1927,-0.00239407,,,,
400.1569,0.0020546,,,,
401.1211,0.00510457,,,,
402.0854,0.00640919,,,,
403.0496,0.00615334,,,,
404.0138,0.00472793,,,,
404.9781,0.00279128,,,,
405.9423,0.00125277,,,,
406.9065,0.001,,,,
407.8708,0.00249244,,,,
408.8350,0.0055194,,,,
409.7992,0.00927001,,,,
410.7635,0.0126665,,,,
411.7277,0.0148468,,,,
412.6919,0.0155519,,,,
413.6562,0.0151221,,,,
414.6204,0.0141598,,,,
415.5846,0.0132304,,,,
416.5489,0.0127977,,,,
417.5131,0.0132669,,,,
418.4773,0.0148496,,,,
419.4416,0.0172018,,,,
420.4058,0.0194867,,,,
421.3700,0.0210755,,,,
422.3343,0.021863,,,,
423.2985,0.0220226,,,,
424.2627,0.0218019,,,,
425.2270,0.0214786,,,,
426.1912,0.0213192,,,,
427.1554,0.0214837,,,,
428.1197,0.0219496,,,,
429.0839,0.0225301,,,,
430.0481,0.0229778,,,,
431.0124,0.0231269,,,,
431.9766,0.0230144,,,,
432.9408,0.0228989,,,,
433.9051,0.0231316,,,,
434.8693,0.0239287,,,,
435.8335,0.0251875,,,,
436.7978,0.0264956,,,,
437.7620,0.0273545,,,,
438.7262,0.0274643,,,,
439.6905,0.0268859,,,,
440.6547,0.0260215,,,,
441.6189,0.0254511,,,,
442.5832,0.0256791,,,,
443.5474,0.0268858,,,,
444.5116,0.0288447,,,,
445.4759,0.0310805,,,,
446.4401,0.0331306,,,,
447.4043,0.0347078,,,,
448.3686,0.0357198,,,,
449.3328,0.0362232,,,,
450.2970,0.0363772,,,,
451.2613,0.0363897,,,,
452.2255,0.036429,,,,
453.1897,0.0365284,,,,
454.1540,0.0365565,,,,
455.1182,0.0362962,,,,
456.0824,0.0356129,,,,
457.0467,0.0346289,,,,
458.0109,0.0337478,,,,
458.9751,0.0334092,,,,
459.9394,0.0337645,,,,
460.9036,0.0346429,,,,
461.8678,0.0357949,,,,
462.8321,0.0370977,,,,
463.7963,0.0385663,,,,
464.7605,0.0402198,,,,
465.7248,0.0419309,,,,
466.6890,0.0433975,,,,
467.6532,0.0442903,,,,
468.6175,0.0444509,,,,
469.5817,0.0439831,,,,
470.5459,0.0432065,,,,
471.5102,0.0425406,,,,
472.4744,0.0423668,,,,
473.4386,0.042913,,,,
474.4029,0.044222,,,,
475.3671,0.046198,,,,
476.3313,0.0486387,,,,
477.2956,0.0512171,,,,
478.2598,0.0534843,,,,
479.2240,0.0549801,,,,
480.1883,0.0554387,,,,
481.1525,0.0549588,,,,
482.1167,0.0539975,,,,
483.0810,0.0531743,,,,
484.0452,0.0529958,,,,
485.0094,0.0536567,,,,
485.9737,0.0550319,,,,
486.9379,0.0568336,,,,
487.9021,0.0587748,,,,
488.8664,0.0606215,,,,
489.8306,0.0621747,,,,
490.7948,0.063282,,,,
491.7591,0.0639139,,,,
492.7233,0.0642248,,,,
493.6875,0.0644903,,,,
494.6518,0.0649349,,,,
495.6160,0.0655957,,,,
496.5802,0.0663345,,,,
497.5445,0.0669795,,,,
498.5087,0.0674815,,,,
499.4729,0.0679856,,,,
500.4372,0.0687704,,,,
501.4014,0.0700766,,,,
502.3656,0.0719264,,,,
503.3299,0.0740816,,,,
504.2941,0.076193,,,,
505.2583,0.0780107,,,,
506.2226,0.079486,,,,
507.1868,0.0807301,,,,
508.1510,0.0818968,,,,
509.1153,0.0830717,,,,
510.0795,0.0842229,,,,
511.0437,0.0852339,,,,
512.0080,0.0859956,,,,
512.9722,0.0864983,,,,
513.9365,0.0868776,,,,
514.9007,0.0873843,,,,
515.8649,0.0882686,,,,
516.8292,0.0895973,,,,
517.7934,0.0911131,,,,
518.7576,0.0923145,,,,
519.7219,0.0927814,,,,
520.6861,0.0924706,,,,
521.6503,0.0917222,,,,
522.6146,0.0910413,,,,
523.5788,0.0908526,,,,
524.5430,0.0913094,,,,
525.5073,0.0921966,,,,
526.4715,0.0930206,,,,
527.4357,0.0933125,,,,
528.4000,0.0929298,,,,
529.3642,0.0921113,,,,
530.3284,0.0913004,,,,
531.2927,0.0909183,,,,
532.2569,0.0911954,,,,
533.2211,0.0920923,,,,
534.1854,0.0933282,,,,
535.1496,0.0945199,,,,
536.1138,0.0953662,,,,
537.0781,0.0957806,,,,
538.0423,0.0959054,,,,
539.0065,0.0960128,,,,
539.9708,0.0963601,,,,
540.9350,0.0970831,,,,
541.8992,0.0981746,,,,
542.8635,0.0995339,,,,
543.8277,0.101037,,,,
544.7919,0.102584,,,,
545.7562,0.104107,,,,
546.7204,0.105563,,,,
547.6846,0.106924,,,,
548.6489,0.10818,,,,
549.6131,0.109348,,,,
550.5773,0.110465,,,,
551.5416,0.111574,,,,
552.5058,0.112704,,,,
553.4700,0.113848,,,,
554.4343,0.11496,,,,
555.3985,0.115944,,,,
556.3627,0.116659,,,,
557.3270,0.11695,,,,
558.2912,0.116707,,,,
559.2554,0.115927,,,,
560.2197,0.114756,,,,
561.1839,0.113452,,,,
562.1481,0.112285,,,,
563.1124,0.111415,,,,
564.0766,0.110825,,,,
565.0408,0.110347,,,,
566.0051,0.109784,,,,
566.9693,0.109034,,,,
567.9335,0.108154,,,,
568.8978,0.10732,,,,
569.8620,0.106699,,,,
570.8262,0.106339,,,,
571.7905,0.106157,,,,
572.7547,0.106024,,,,
573.7189,0.105873,,,,
574.6832,0.10576,,,,
575.6474,0.10585,,,,
576.6116,0.106337,,,,
577.5759,0.107337,,,,
578.5401,0.108833,,,,
579.5043,0.110679,,,,
580.4686,0.112651,,,,
581.4328,0.114501,,,,
582.3970,0.116014,,,,
583.3613,0.117066,,,,
584.3255,0.117657,,,,
585.2897,0.117893,,,,
586.2540,0.117935,,,,
587.2182,0.117911,,,,
588.1824,0.117859,,,,
589.1467,0.117723,,,,
590.1109,0.117405,,,,
591.0751,0.116842,,,,
592.0394,0.116081,,,,
593.0036,0.115266,,,,
593.9678,0.114565,,,,
594.9321,0.114063,,,,
595.8963,0.113718,,,,
596.8605,0.113397,,,,
597.8248,0.112938,,,,
598.7890,0.112233,,,,
599.7532,0.111268,,,,
600.7175,0.110121,,,,
601.6817,0.10892,,,,
602.6459,0.107777,,,,
603.6102,0.106769,,,,
604.5744,0.10593,,,,
605.5386,0.105277,,,,
606.5029,0.104819,,,,
607.4671,0.104552,,,,
608.4313,0.104438,,,,
609.3956,0.104409,,,,
610.3598,0.10438,,,,
611.3240,0.10431,,,,
612.2883,0.104247,,,,
613.2525,0.104334,,,,
614.2167,0.10476,,,,
615.1810,0.10566,,,,
616.1452,0.107029,,,,
617.1094,0.108694,,,,
618.0737,0.110388,,,,
619.0379,0.111887,,,,
620.0021,0.113114,,,,
620.9664,0.114155,,,,
621.9306,0.115179,,,,
622.8948,0.116352,,,,
623.8591,0.11778,,,,
624.8233,0.1195,,,,
625.7875,0.121473,,,,
626.7518,0.123614,,,,
627.7160,0.125795,,,,
628.6802,0.127841,,,,
629.6445,0.129552,,,,
630.6087,0.130748,,,,
631.5729,0.131328,,,,
632.5372,0.131322,,,,
633.5014,0.130895,,,,
634.4656,0.130282,,,,
635.4299,0.129689,,,,
636.3941,0.129189,,,,
637.3583,0.1287,,,,
638.3226,0.128036,,,,
639.2868,0.127025,,,,
640.2510,0.125601,,,,
641.2153,0.123833,,,,
642.1795,0.121865,,,,
643.1437,0.119832,,,,
644.1080,0.117785,,,,
645.0722,0.115708,,,,
646.0364,0.113558,,,,
647.0007,0.111331,,,,
647.9649,0.109076,,,,
648.9291,0.106879,,,,
649.8934,0.104821,,,,
650.8576,0.102947,,,,
651.8218,0.101265,,,,
652.7861,0.0997641,,,,
653.7503,0.0984453,,,,
654.7145,0.0973376,,,,
655.6788,0.0964886,,,,
656.6430,0.095929,,,,
657.6072,0.0956321,,,,
658.5715,0.0954912,,,,
659.5357,0.0953412,,,,
660.4999,0.0950306,,,,
661.4642,0.0945157,,,,
662.4284,0.0938937,,,,
663.3926,0.0933408,,,,
664.3569,0.0930162,,,,
665.3211,0.0930042,,,,
666.2853,0.0932865,,,,
667.2496,0.0937109,,,,
668.2138,0.0940005,,,,
669.1780,0.0939339,,,,
670.1423,0.0935634,,,,
671.1065,0.0931171,,,,
672.0707,0.0927721,,,,
673.0350,0.0925899,,,,
673.9992,0.0925488,,,,
674.9634,0.0925798,,,,
675.9277,0.0925989,,,,
676.8919,0.092545,,,,
677.8561,0.0924127,,,,
678.8204,0.0922558,,,,
679.7846,0.0921549,,,,
680.7488,0.0921653,,,,
681.7131,0.092274,,,,
682.6773,0.0924006,,,,
683.6415,0.0924535,,,,
684.6058,0.0924018,,,,
685.5700,0.0923052,,,,
686.5342,0.0922802,,,,
687.4985,0.0924241,,,,
688.4627,0.0927478,,,,
689.4269,0.0931655,,,,
690.3912,0.0935469,,,,
691.3554,0.0937978,,,,
692.3196,0.0939141,,,,
693.2839,0.0939783,,,,
694.2481,0.0941091,,,,
695.2123,0.0943967,,,,
696.1766,0.0948599,,,,
697.1408,0.0954393,,,,
698.1050,0.0960254,,,,
699.0693,0.0965038,,,,
700.0335,0.0967984,,,,
700.9977,0.0968919,,,,
701.9620,0.0968189,,,,
702.9262,0.0966342,,,,
703.8904,0.0963743,,,,
704.8547,0.096028,,,,
705.8189,0.0955479,,,,
706.7831,0.0948897,,,,
707.7474,0.0940563,,,,
708.7116,0.0931119,,,,
709.6758,0.0921516,,,,
710.6401,0.0912462,,,,
711.6043,0.0903993,,,,
712.5685,0.0895477,,,,
713.5328,0.0886066,,,,
714.4970,0.0875312,,,,
715.4612,0.0864521,,,,
716.4255,0.0852447,,,,
717.3897,0.0841355,,,,
718.3539,0.0832101,,,,
719.3182,0.0824901,,,,
720.2824,0.0819319,,,,
721.2466,0.0814592,,,,
722.2109,0.0810089,,,,
723.1751,0.0805585,,,,
724.1393,0.0801216,,,,
725.1036,0.0797212,,,,
726.0678,0.0793648,,,,
727.0320,0.0790375,,,,
727.9963,0.0787142,,,,
728.9605,0.0783791,,,,
729.9247,0.0780334,,,,
730.8890,0.0776866,,,,
731.8532,0.0773402,,,,
732.8174,0.0769812,,,,
733.7817,0.0765938,,,,
734.7459,0.0761808,,,,
735.7101,0.0757748,,,,
736.6744,0.0754277,,,,
737.6386,0.0751821,,,,
738.6028,0.0750456,,,,
739.5671,0.0749856,,,,
740.5313,0.0749483,,,,
741.4955,0.0748889,,,,
742.4598,0.0747921,,,,
743.4240,0.0746717,,,,
744.3882,0.0745551,,,,
745.3525,0.0744643,,,,
746.3167,0.0744043,,,,
747.2809,0.0743654,,,,
748.2452,0.0743345,,,,
749.2094,0.0743121,,,,
750.1736,0.0743255,,,,
751.1379,0.0744303,,,,
752.1021,0.0746932,,,,
753.0663,0.0751584,,,,
754.0306,0.0758161,,,,
754.9948,0.0765978,,,,
755.9590,0.0774092,,,,
756.9233,0.0781899,,,,
757.8875,0.0789609,,,,
758.8517,0.079826,,,,
759.8160,0.0809199,,,,
760.7802,0.0823334,,,,
761.7444,0.0840608,,,,
762.7087,0.0860005,,,,
763.6729,0.0880031,,,,
764.6371,0.0899299,,,,
765.6014,0.0916826,,,,
766.5656,0.0931912,,,,
767.5298,0.0943807,,,,
768.4941,0.0951511,,,,
769.4583,0.0953909,,,,
770.4225,0.0950136,,,,
771.3868,0.0939902,,,,
772.3510,0.0923559,,,,
773.3152,0.0901937,,,,
774.2795,0.087611,,,,
775.2437,0.0847261,,,,
776.2079,0.0816642,,,,
777.1722,0.078552,,,,
778.1364,0.0755047,,,,
779.1006,0.0726091,,,,
780.0649,0.0699154,,,,
781.0291,0.0674448,,,,
781.9933,0.0652045,,,,
782.9576,0.0631962,,,,
783.9218,0.0614118,,,,
784.8860,0.0598218,,,,
785.8503,0.058376,,,,
786.8145,0.0570226,,,,
787.7787,0.0557379,,,,
788.7430,0.0545422,,,,
789.7072,0.0534873,,,,
790.6714,0.0526191,,,,
791.6357,0.0519411,,,,
792.5999,0.0514047,,,,
793.5641,0.0509328,,,,
794.5284,0.0504577,,,,
795.4926,0.0499466,,,,
796.4568,0.049401,,,,
797.4211,0.0488364,,,,
798.3853,0.0482654,,,,
799.3495,0.0476956,,,,
800.3138,0.0471386,,,,
801.2780,0.0466155,,,,
802.2422,0.0461494,,,,
803.2065,0.0457498,,,,
804.1707,0.0454051,,,,
805.1349,0.0450885,,,,
806.0992,0.0447738,,,,
807.0634,0.0444464,,,,
808.0276,0.0441023,,,,
808.9919,0.0437404,,,,
809.9561,0.043359,,,,
810.9203,0.0429622,,,,
811.8846,0.0425692,,,,
812.8488,0.0422124,,,,
813.8130,0.0419226,,,,
814.7773,0.0417089,,,,
815.7415,0.0415511,,,,
816.7057,0.0414117,,,,
817.6700,0.041262,,,,
818.6342,0.0411014,,,,
819.5984,0.0409587,,,,
820.5627,0.0408729,,,,
821.5269,0.040871,,,,
822.4911,0.0409564,,,,
823.4554,0.0411163,,,,
824.4196,0.0413388,,,,
825.3839,0.041629,,,,
826.3481,0.0420106,,,,
827.3123,0.0425153,,,,
828.2766,0.0431642,,,,
829.2408,0.0439539,,,,
830.2050,0.0448551,,,,
831.1693,0.045824,,,,
832.1335,0.0468212,,,,
833.0977,0.0478286,,,,
834.0620,0.0488536,,,,
835.0262,0.0499195,,,,
835.9904,0.0510469,,,,
836.9547,0.0522365,,,,
837.9189,0.0534601,,,,
838.8831,0.0546627,,,,
839.8474,0.0557724,,,,
840.8116,0.0567128,,,,
841.7758,0.0574175,,,,
842.7401,0.0578456,,,,
843.7043,0.0579946,,,,
844.6685,0.0579042,,,,
845.6328,0.0576444,,,,
846.5970,0.0572901,,,,
847.5612,0.0568938,,,,
848.5255,0.0564709,,,,
849.4897,0.0560074,,,,
850.4539,0.0554841,,,,
851.4182,0.0549031,,,,
852.3824,0.0542992,,,,
853.3466,0.0537298,,,,
854.3109,0.0532496,,,,
855.2751,0.0528847,,,,
856.2393,0.0526185,,,,
857.2036,0.0523969,,,,
858.1678,0.052148,,,,
859.1320,0.051809,,,,
860.0963,0.0513498,,,,
861.0605,0.0507837,,,,
862.0247,0.0501596,,,,
862.9890,0.0495364,,,,
863.9532,0.0489519,,,,
864.9174,0.0484014,,,,
865.8817,0.0478432,,,,
866.8459,0.0472292,,,,
867.8101,0.0465492,,,,
868.7744,0.0458569,,,,
869.7386,0.0452609,,,,
870.7028,0.0448795,,,,
871.6671,0.0447867,,,,
872.6313,0.0449841,,,,
873.5955,0.0454169,,,,
874.5598,0.0460251,,,,
875.5240,0.0467948,,,,
876.4882,0.0477766,,,,
877.4525,0.0490585,,,,
878.4167,0.0507173,,,,
879.3809,0.052783,,,,
880.3452,0.0552388,,,,
881.3094,0.0580517,,,,
882.2736,0.0612045,,,,
883.2379,0.0647012,,,,
884.2021,0.0685431,,,,
885.1663,0.0726956,,,,
886.1306,0.0770711,,,,
887.0948,0.0815413,,,,
888.0590,0.0859647,,,,
889.0233,0.0902098,,,,
889.9875,0.094161,,,,
890.9517,0.0977137,,,,
891.9160,0.100775,,,,
892.8802,0.103281,,,,
893.8444,0.105209,,,,
894.8087,0.106593,,,,
895.7729,0.107495,,,,
896.7371,0.107976,,,,
897.7014,0.10807,,,,
898.6656,0.107784,,,,
899.6298,0.107122,,,,
900.5941,0.106118,,,,
901.5583,0.104855,,,,
902.5225,0.103447,,,,
903.4868,0.102023,,,,
904.4510,0.100689,,,,
905.4152,0.0995196,,,,
906.3795,0.0985534,,,,
907.3437,0.0978044,,,,
908.3079,0.0972691,,,,
909.2722,0.0969293,,,,
910.2364,0.09675,,,,
911.2006,0.0966767,,,,
912.1649,0.0966381,,,,
913.1291,0.0965566,,,,
914.0933,0.0963653,,,,
915.0576,0.0960234,,,,
916.0218,0.0955217,,,,
916.9860,0.0948717,,,,
917.9503,0.0940826,,,,
918.9145,0.0931403,,,,
919.8787,0.0920025,,,,
920.8430,0.0906161,,,,
921.8072,0.0889478,,,,
922.7714,0.0870084,,,,
923.7357,0.0848574,,,,
924.6999,0.0825863,,,,
925.6641,0.0802934,,,,
926.6284,0.0780635,,,,
927.5926,0.0759617,,,,
928.5568,0.0740354,,,,
929.5211,0.0723183,,,,
930.4853,0.070833,,,,
931.4495,0.0695959,,,,
932.4138,0.0686271,,,,
933.3780,0.0679599,,,,
934.3422,0.0676414,,,,
935.3065,0.0677156,,,,
936.2707,0.0681969,,,,
937.2349,0.0690503,,,,
938.1992,0.0701966,,,,
939.1634,0.0715426,,,,
940.1276,0.0730205,,,,
941.0919,0.0746116,,,,
942.0561,0.0763407,,,,
943.0203,0.0782488,,,,
943.9846,0.0803649,,,,
944.9488,0.0826944,,,,
945.9130,0.0852272,,,,
946.8773,0.0879506,,,,
947.8415,0.0908531,,,,
948.8057,0.0939183,,,,
949.7700,0.0971188,,,,
950.7342,0.100424,,,,
951.6984,0.103817,,,,
952.6627,0.107314,,,,
953.6269,0.110962,,,,
954.5911,0.114819,,,,
955.5554,0.118927,,,,
956.5196,0.123299,,,,
957.4838,0.127926,,,,
958.4481,0.132804,,,,
959.4123,0.137947,,,,
960.3765,0.143395,,,,
961.3408,0.1492,,,,
962.3050,0.155413,,,,
963.2692,0.162084,,,,
964.2335,0.169263,,,,
965.1977,0.177014,,,,
966.1619,0.185411,,,,
967.1262,0.194537,,,,
968.0904,0.204475,,,,
969.0546,0.215306,,,,
970.0189,0.227112,,,,
970.9831,0.239968,,,,
971.9473,0.25393,,,,
972.9116,0.269015,,,,
973.8758,0.285176,,,,
974.8400,0.302298,,,,
975.8043,0.32019,,,,
976.7685,0.33859,,,,
977.7327,0.357165,,,,
978.6970,0.37551,,,,
979.6612,0.393153,,,,
980.6254,0.409597,,,,
981.5897,0.42437,,,,
982.5539,0.4371,,,,
983.5181,0.447573,,,,
984.4824,0.455746,,,,
985.4466,0.461719,,,,
986.4108,0.465687,,,,
987.3751,0.467897,,,,
988.3393,0.468636,,,,
989.3035,0.468251,,,,
990.2678,0.467171,,,,
991.2320,0.465903,,,,
992.1962,0.464993,,,,
993.1605,0.464955,,,,
994.1247,0.466195,,,,
995.0889,0.468961,,,,
996.0532,0.473327,,,,
997.0174,0.479212,,,,
997.9816,0.486408,,,,
998.9459,0.49461,,,,
999.9101,0.50344,,,,
1000.8743,0.512464,,,,
1001.8386,0.521224,,,,
1002.8028,0.529302,,,,
1003.7670,0.536386,,,,
1004.7313,0.542326,,,,
1005.6955,0.547134,,,,
1006.6597,0.550934,,,,
1007.6240,0.553873,,,,
1008.5882,0.556055,,,,
1009.5524,0.557527,,,,
1010.5167,0.558319,,,,
1011.4809,0.558495,,,,
1012.4451,0.558175,,,,
1013.4094,0.55751,,,,
1014.3736,0.556628,,,,
1015.3378,0.555597,,,,
1016.3021,0.554423,,,,
1017.2663,0.553096,,,,
1018.2305,0.551619,,,,
1019.1948,0.550018,,,,
1020.1590,0.548294,,,,
1021.1232,0.546389,,,,
1022.0875,0.544161,,,,
1023.0517,0.541434,,,,
1024.0160,0.538061,,,,
1024.9802,0.53398,,,,
1025.9445,0.529215,,,,
1026.9087,0.523838,,,,
1027.8729,0.517918,,,,
1028.8372,0.511496,,,,
1029.8014,0.504602,,,,
1030.7656,0.497282,,,,
1031.7299,0.48961,,,,
1032.6941,0.481679,,,,
1033.6583,0.473571,,,,
1034.6226,0.465355,,,,
1035.5868,0.457099,,,,
1036.5510,0.4489,,,,
1037.5153,0.440883,,,,
1038.4795,0.43318,,,,
1039.4437,0.425896,,,,
1040.4080,0.419089,,,,
1041.3722,0.412777,,,,
1042.3364,0.406969,,,,
1043.3007,0.401688,,,,
1044.2649,0.396958,,,,
1045.2291,0.39278,,,,
1046.1934,0.389096,,,,
1047.1576,0.385802,,,,
1048.1218,0.382773,,,,
1049.0861,0.379913,,,,
1050.0503,0.377172,,,,
1051.0145,0.374537,,,,
1051.9788,0.372,,,,
1052.9430,0.369547,,,,
1053.9072,0.367164,,,,
1054.8715,0.364867,,,,
1055.8357,0.362723,,,,
1056.7999,0.36085,,,,
1057.7642,0.359393,,,,
1058.7284,0.358498,,,,
1059.6926,0.358283,,,,
1060.6569,0.358841,,,,
1061.6211,0.360236,,,,
1062.5853,0.362494,,,,
1063.5496,0.365587,,,,
1064.5138,0.369401,,,,
1065.4780,0.373727,,,,
1066.4423,0.378268,,,,
1067.4065,0.382683,,,,
1068.3707,0.386634,,,,
1069.3350,0.389828,,,,
1070.2992,0.392031,,,,
1071.2634,0.393066,,,,
1072.2277,0.392803,,,,
1073.1919,0.391157,,,,
1074.1561,0.388092,,,,
1075.1204,0.383624,,,,
1076.0846,0.377806,,,,
1077.0488,0.37072,,,,
1078.0131,0.362471,,,,
1078.9773,0.353197,,,,
1079.9415,0.343079,,,,
1080.9058,0.332352,,,,
1081.8700,0.321279,,,,
1082.8342,0.310139,,,,
1083.7985,0.299206,,,,
1084.7627,0.288759,,,,
1085.7269,0.279096,,,,
1086.6912,0.270526,,,,
1087.6554,0.263334,,,,
1088.6196,0.257721,,,,
1089.5839,0.253761,,,,
1090.5481,0.251385,,,,
1091.5123,0.250419,,,,
1092.4766,0.250635,,,,
1093.4408,0.251798,,,,
1094.4050,0.253671,,,,
1095.3693,0.256002,,,,
1096.3335,0.258503,,,,
1097.2977,0.260862,,,,
1098.2620,0.26279,,,,
1099.2262,0.264074,,,,
1100.1904,0.26461,,,,
1101.1547,0.264395,,,,
1102.1189,0.263488,,,,
1103.0831,0.26196,,,,
1104.0474,0.259864,,,,
1105.0116,0.257233,,,,
1105.9758,0.25409,,,,
1106.9401,0.250471,,,,
1107.9043,0.246441,,,,
1108.8685,0.24209,,,,
1109.8328,0.237533,,,,
1110.7970,0.232888,,,,
1111.7612,0.228263,,,,
1112.7255,0.223738,,,,
1113.6897,0.219352,,,,
1114.6539,0.215106,,,,
1115.6182,0.210985,,,,
1116.5824,0.206972,,,,
1117.5466,0.203068,,,,
1118.5109,0.199285,,,,
1119.4751,0.195632,,,,
1120.4393,0.192099,,,,
1121.4036,0.188648,,,,
1122.3678,0.185236,,,,
1123.3320,0.18184,,,,
1124.2963,0.178475,,,,
1125.2605,0.17519,,,,
1126.2247,0.172038,,,,
1127.1890,0.169041,,,,
1128.1532,0.166171,,,,
1129.1174,0.163368,,,,
1130.0817,0.16057,,,,
1131.0459,0.157751,,,,
1132.0101,0.154933,,,,
1132.9744,0.152181,,,,
1133.9386,0.14958,,,,
1134.9028,0.147215,,,,
1135.8671,0.145169,,,,
1136.8313,0.143524,,,,
1137.7955,0.14236,,,,
1138.7598,0.141738,,,,
1139.7240,0.141684,,,,
1140.6882,0.142156,,,,
1141.6525,0.143044,,,,
1142.6167,0.144175,,,,
1143.5809,0.145344,,,,
1144.5452,0.146345,,,,
1145.5094,0.147005,,,,
1146.4736,0.147198,,,,
1147.4379,0.14685,,,,
1148.4021,0.145926,,,,
1149.3663,0.144425,,,,
1150.3306,0.142368,,,,
1151.2948,0.13979,,,,
1152.2590,0.13674,,,,
1153.2233,0.133269,,,,
1154.1875,0.129429,,,,
1155.1517,0.125268,,,,
1156.1160,0.120828,,,,
1157.0802,0.116147,,,,
1158.0444,0.111265,,,,
1159.0087,0.106223,,,,
1159.9729,0.101058,,,,
1160.9371,0.0958089,,,,
1161.9014,0.0905156,,,,
1162.8656,0.0852212,,,,
1163.8298,0.0799745,,,,
1164.7941,0.074829,,,,
1165.7583,0.0698391,,,,
1166.7225,0.0650593,,,,
1167.6868,0.0605439,,,,
1168.6510,0.056347,,,,
1169.6152,0.052518,,,,
1170.5795,0.0490948,,,,
1171.5437,0.0460963,,,,
1172.5079,0.0435224,,,,
1173.4722,0.0413602,,,,
1174.4364,0.0395949,,,,
1175.4006,0.0382168,,,,
1176.3649,0.0372227,,,,
1177.3291,0.0366107,,,,
1178.2933,0.0363758,,,,
1179.2576,0.0365098,,,,
1180.2218,0.0370054,,,,
1181.1860,0.0378609,,,,
1182.1503,0.0390789,,,,
1183.1145,0.0406601,,,,
1184.0787,0.0425937,,,,
1185.0430,0.0448517,,,,
1186.0072,0.04739,,,,
1186.9714,0.050155,,,,
1187.9357,0.0530906,,,,
1188.8999,0.0561413,,,,
1189.8641,0.0592504,,,,
1190.8284,0.0623557,,,,
1191.7926,0.0653891,,,,
1192.7568,0.0682801,,,,
1193.7211,0.0709614,,,,
1194.6853,0.0733718,,,,
1195.6495,0.0754565,,,,
1196.6138,0.077168,,,,
1197.5780,0.0784737,,,,
1198.5422,0.0793661,,,,
1199.5065,0.0799335,,,,
1200.4707,0.0800923,,,,
1201.4349,0.0799769,,,,
1202.3992,0.079646,,,,
1203.3634,0.0791485,,,,
1204.3276,0.0785339,,,,
1205.2919,0.0778695,,,,
1206.2561,0.0772484,,,,
1207.2203,0.0767795,,,,
1208.1846,0.0765624,,,,
1209.1488,0.0766634,,,,
1210.1130,0.0771049,,,,
1211.0773,0.0778739,,,,
1212.0415,0.0789401,,,,
1213.0057,0.0802728,,,,
1213.9700,0.0818473,,,,
1214.9342,0.0836402,,,,
1215.8984,0.0856208,,,,
1216.8627,0.0877469,,,,
1217.8269,0.0899662,,,,
1218.7911,0.0922229,,,,
1219.7554,0.0944643,,,,
1220.7196,0.0966438,,,,
1221.6838,0.0987212,,,,
1222.6481,0.100662,,,,
1223.6123,0.102438,,,,
1224.5765,0.104034,,,,
1225.5408,0.105448,,,,
1226.5050,0.106692,,,,
1227.4692,0.107789,,,,
1228.4335,0.108763,,,,
1229.3977,0.109639,,,,
1230.3619,0.11044,,,,
1231.3262,0.111191,,,,
1232.2904,0.11192,,,,
1233.2546,0.11266,,,,
1234.2189,0.113445,,,,
1235.1831,0.114303,,,,
1236.1473,0.115249,,,,
1237.1116,0.116279,,,,
1238.0758,0.117377,,,,
1239.0400,0.118524,,,,
1240.0043,0.119707,,,,
1240.9685,0.120922,,,,
1241.9327,0.122164,,,,
1242.8970,0.123422,,,,
1243.8612,0.124672,,,,
1244.8254,0.125883,,,,
1245.7897,0.12703,,,,
1246.7539,0.128103,,,,
1247.7181,0.129106,,,,
1248.6824,0.130043,,,,
1249.6466,0.130914,,,,
1250.6108,0.131711,,,,
1251.5751,0.132424,,,,
1252.5393,0.133046,,,,
1253.5035,0.133578,,,,
1254.4678,0.134024,,,,
1255.4320,0.134383,,,,
1256.3962,0.134653,,,,
1257.3605,0.13483,,,,
1258.3247,0.134919,,,,
1259.2889,0.134934,,,,
1260.2532,0.134893,,,,
1261.2174,0.134807,,,,
1262.1816,0.13468,,,,
1263.1459,0.134507,,,,
1264.1101,0.134287,,,,
1265.0743,0.134027,,,,
1266.0386,0.133744,,,,
1267.0028,0.13346,,,,
1267.9670,0.133193,,,,
1268.9313,0.13296,,,,
1269.8955,0.132772,,,,
1270.8597,0.132637,,,,
1271.8240,0.132559,,,,
1272.7882,0.132536,,,,
1273.7524,0.132552,,,,
1274.7167,0.132588,,,,
1275.6809,0.132617,,,,
1276.6451,0.132625,,,,
1277.6094,0.132604,,,,
1278.5736,0.132561,,,,
1279.5378,0.132505,,,,
1280.5021,0.132448,,,,
1281.4663,0.132396,,,,
1282.4305,0.13235,,,,
1283.3948,0.132308,,,,
1284.3590,0.132268,,,,
1285.3232,0.132228,,,,
1286.2875,0.132192,,,,
1287.2517,0.132167,,,,
1288.2159,0.132171,,,,
1289.1802,0.13223,,,,
1290.1444,0.132373,,,,
1291.1086,0.132632,,,,
1292.0729,0.133038,,,,
1293.0371,0.133616,,,,
1294.0013,0.134392,,,,
1294.9656,0.135384,,,,
1295.9298,0.136601,,,,
1296.8940,0.138042,,,,
1297.8583,0.139697,,,,
1298.8225,0.141548,,,,
1299.7867,0.143574,,,,
1300.7510,0.145745,,,,
1301.7152,0.148026,,,,
1302.6794,0.150382,,,,
1303.6437,0.152779,,,,
1304.6079,0.155191,,,,
1305.5721,0.15759,,,,
1306.5364,0.159945,,,,
1307.5006,0.162227,,,,
1308.4648,0.16441,,,,
1309.4291,0.166481,,,,
1310.3933,0.16843,,,,
1311.3575,0.170237,,,,
1312.3218,0.171865,,,,
1313.2860,0.173268,,,,
1314.2502,0.174411,,,,
1315.2145,0.175289,,,,
1316.1787,0.175924,,,,
1317.1429,0.176358,,,,
1318.1072,0.176641,,,,
1319.0714,0.176826,,,,
1320.0356,0.176967,,,,
1320.9999,0.177116,,,,
1321.9641,0.177312,,,,
1322.9283,0.177573,,,,
1323.8926,0.177901,,,,
1324.8568,0.178282,,,,
1325.8210,0.178704,,,,
1326.7853,0.179163,,,,
1327.7495,0.179673,,,,
1328.7137,0.180258,,,,
1329.6780,0.180942,,,,
1330.6422,0.181731,,,,
1331.6064,0.182612,,,,
1332.5707,0.183562,,,,
1333.5349,0.184559,,,,
1334.4991,0.185599,,,,
1335.4634,0.186697,,,,
1336.4276,0.187873,,,,
1337.3918,0.189129,,,,
1338.3561,0.190425,,,,
1339.3203,0.191685,,,,
1340.2845,0.192838,,,,
1341.2488,0.193873,,,,
1342.2130,0.194838,,,,
1343.1772,0.195806,,,,
1344.1415,0.196829,,,,
1345.1057,0.197922,,,,
1346.0699,0.199075,,,,
1347.0342,0.200261,,,,
1347.9984,0.20145,,,,
1348.9626,0.202605,,,,
1349.9269,0.203691,,,,
1350.8911,0.204673,,,,
1351.8553,0.205528,,,,
1352.8196,0.206246,,,,
1353.7838,0.206822,,,,
1354.7480,0.207258,,,,
1355.7123,0.20756,,,,
1356.6765,0.207743,,,,
1357.6407,0.207829,,,,
1358.6050,0.207827,,,,
1359.5692,0.207704,,,,
1360.5334,0.207382,,,,
1361.4977,0.206775,,,,
1362.4619,0.205864,,,,
1363.4261,0.204725,,,,
1364.3904,0.203475,,,,
1365.3546,0.202174,,,,
1366.3188,0.200812,,,,
1367.2831,0.199353,,,,
1368.2473,0.197793,,,,
1369.2115,0.196178,,,,
1370.1758,0.194565,,,,
1371.1400,0.192959,,,,
1372.1042,0.191288,,,,
1373.0685,0.189448,,,,
1374.0327,0.187403,,,,
1374.9969,0.185242,,,,
1375.9612,0.183125,,,,
1376.9254,0.181149,,,,
1377.8896,0.179297,,,,
1378.8539,0.177487,,,,
1379.8181,0.175663,,,,
1380.7823,0.173849,,,,
1381.7466,0.172131,,,,
1382.7108,0.170592,,,,
1383.6750,0.16925,,,,
1384.6393,0.168052,,,,
1385.6035,0.166919,,,,
1386.5677,0.165806,,,,
1387.5320,0.164741,,,,
1388.4962,0.163795,,,,
1389.4604,0.163021,,,,
1390.4247,0.162437,,,,
1391.3889,0.162047,,,,
1392.3531,0.161867,,,,
1393.3174,0.161927,,,,
1394.2816,0.162266,,,,
1395.2458,0.162893,,,,
1396.2101,0.163761,,,,
1397.1743,0.164779,,,,
1398.1385,0.165846,,,,
1399.1028,0.166892,,,,
1400.0670,0.167891,,,,
1401.0313,0.168861,,,,
1401.9955,0.169857,,,,
1402.9597,0.170938,,,,
1403.9240,0.172133,,,,
1404.8882,0.173409,,,,
1405.8524,0.174675,,,,
1406.8167,0.175838,,,,
1407.7809,0.176869,,,,
1408.7451,0.177802,,,,
1409.7094,0.178685,,,,
1410.6736,0.179532,,,,
1411.6378,0.180317,,,,
1412.6021,0.181012,,,,
1413.5663,0.181623,,,,
1414.5305,0.182193,,,,
1415.4948,0.182764,,,,
1416.4590,0.183329,,,,
1417.4232,0.183816,,,,
1418.3875,0.184115,,,,
1419.3517,0.184161,,,,
1420.3159,0.183976,,,,
1421.2802,0.183639,,,,
1422.2444,0.183215,,,,
1423.2086,0.18274,,,,
1424.1729,0.18224,,,,
1425.1371,0.181746,,,,
1426.1013,0.181277,,,,
1427.0656,0.180817,,,,
1428.0298,0.180308,,,,
1428.9940,0.17969,,,,
1429.9583,0.178958,,,,
1430.9225,0.178184,,,,
1431.8867,0.177471,,,,
1432.8510,0.176866,,,,
1433.8152,0.176326,,,,
1434.7794,0.17573,,,,
1435.7437,0.174952,,,,
1436.7079,0.173964,,,,
1437.6721,0.172865,,,,
1438.6364,0.171774,,,,
1439.6006,0.170744,,,,
1440.5648,0.16978,,,,
1441.5291,0.168888,,,,
1442.4933,0.168088,,,,
1443.4575,0.167408,,,,
1444.4218,0.166853,,,,
1445.3860,0.166383,,,,
1446.3502,0.165923,,,,
1447.3145,0.165398,,,,
1448.2787,0.164777,,,,
1449.2429,0.164079,,,,
1450.2072,0.163353,,,,
1451.1714,0.162643,,,,
1452.1356,0.161981,,,,
1453.0999,0.161379,,,,
1454.0641,0.160788,,,,
1455.0283,0.160043,,,,
1455.9926,0.158837,,,,
1456.9568,0.156932,,,,
1457.9210,0.154558,,,,
1458.8853,0.152232,,,,
1459.8495,0.150195,,,,
1460.8137,0.14839,,,,
1461.7780,0.146634,,,,
1462.7422,0.144686,,,,
1463.7064,0.142325,,,,
1464.6707,0.139525,,,,
1465.6349,0.136558,,,,
1466.5991,0.13378,,,,
1467.5634,0.131342,,,,
1468.5276,0.12915,,,,
1469.4918,0.126988,,,,
1470.4561,0.124587,,,,
1471.4203,0.121698,,,,
1472.3845,0.118265,,,,
1473.3488,0.114589,,,,
1474.3130,0.111107,,,,
1475.2772,0.107986,,,,
1476.2415,0.10513,,,,
1477.2057,0.102421,,,,
1478.1699,0.0998055,,,,
1479.1342,0.0972729,,,,
1480.0984,0.0948215,,,,
1481.0626,0.0924513,,,,
1482.0269,0.0901772,,,,
1482.9911,0.0880391,,,,
1483.9553,0.0860862,,,,
1484.9196,0.0843402,,,,
1485.8838,0.0827569,,,,
1486.8480,0.0812056,,,,
1487.8123,0.0795014,,,,
1488.7765,0.0775391,,,,
1489.7407,0.0754429,,,,
1490.7050,0.0734687,,,,
1491.6692,0.0717543,,,,
1492.6334,0.0702761,,,,
1493.5977,0.0689459,,,,
1494.5619,0.0676714,,,,
1495.5261,0.0663848,,,,
1496.4904,0.0650746,,,,
1497.4546,0.0637969,,,,
1498.4188,0.0626109,,,,
1499.3831,0.0615143,,,,
1500.3473,0.0604874,,,,
1501.3115,0.0595488,,,,
1502.2758,0.0587379,,,,
1503.2400,0.0580718,,,,
1504.2042,0.0575178,,,,
1505.1685,0.0570017,,,,
1506.1327,0.0564807,,,,
1507.0969,0.0560029,,,,
1508.0612,0.0555203,,,,
1509.0254,0.0548585,,,,
1509.9896,0.0540208,,,,
1510.9539,0.0531453,,,,
1511.9181,0.0523396,,,,
1512.8823,0.0516467,,,,
1513.8466,0.0510694,,,,
1514.8108,0.0505993,,,,
1515.7750,0.0502345,,,,
1516.7393,0.0499751,,,,
1517.7035,0.0498039,,,,
1518.6677,0.0496698,,,,
1519.6320,0.0494924,,,,
1520.5962,0.0492009,,,,
1521.5604,0.0487895,,,,
1522.5247,0.0483296,,,,
1523.4889,0.0479107,,,,
1524.4531,0.04757,,,,
1525.4174,0.0472792,,,,
1526.3816,0.046985,,,,
1527.3458,0.0466633,,,,
1528.3101,0.0463434,,,,
1529.2743,0.0460856,,,,
1530.2385,0.0459391,,,,
1531.2028,0.0459118,,,,
1532.1670,0.0459586,,,,
1533.1312,0.0459939,,,,
1534.0955,0.0459378,,,,
1535.0597,0.0457751,,,,
1536.0239,0.0455546,,,,
1536.9882,0.0453292,,,,
1537.9524,0.045114,,,,
1538.9166,0.0449194,,,,
1539.8809,0.0448584,,,,
1540.8451,0.0451106,,,,
1541.8093,0.0455537,,,,
1542.7736,0.0458262,,,,
1543.7378,0.0458119,,,,
1544.7020,0.0456187,,,,
1545.6663,0.0453692,,,,
1546.6305,0.045137,,,,
1547.5947,0.0449575,,,,
1548.5590,0.0448456,,,,
1549.5232,0.0448027,,,,
1550.4874,0.0448163,,,,
1551.4517,0.0448597,,,,
1552.4159,0.0449023,,,,
1553.3801,0.0449287,,,,
1554.3444,0.0449477,,,,
1555.3086,0.0449813,,,,
1556.2728,0.0450587,,,,
1557.2371,0.0452563,,,,
1558.2013,0.0457169,,,,
1559.1655,0.0463486,,,,
1560.1298,0.0466889,,,,
1561.0940,0.0465697,,,,
1562.0582,0.0462112,,,,
1563.0225,0.0458411,,,,
1563.9867,0.0455705,,,,
1564.9509,0.0454284,,,,
1565.9152,0.0454129,,,,
1566.8794,0.0455262,,,,
1567.8436,0.0457806,,,,
1568.8079,0.0461597,,,,
1569.7721,0.0465694,,,,
1570.7363,0.0468819,,,,
1571.7006,0.0470425,,,,
1572.6648,0.0470951,,,,
1573.6290,0.0471304,,,,
1574.5933,0.0472496,,,,
1575.5575,0.0475459,,,,
1576.5217,0.0480309,,,,
1577.4860,0.0485625,,,,
1578.4502,0.0489751,,,,
1579.4144,0.0492507,,,,
1580.3787,0.0494801,,,,
1581.3429,0.0497503,,,,
1582.3071,0.0500949,,,,
1583.2714,0.0504977,,,,
1584.2356,0.0509221,,,,
1585.1998,0.0513452,,,,
1586.1641,0.0517733,,,,
1587.1283,0.0522268,,,,
1588.0925,0.0527164,,,,
1589.0568,0.0532315,,,,
1590.0210,0.0537534,,,,
1590.9852,0.0542775,,,,
1591.9495,0.0548248,,,,
1592.9137,0.0554303,,,,
1593.8779,0.0561176,,,,
1594.8422,0.0568781,,,,
1595.8064,0.0576745,,,,
1596.7706,0.0584666,,,,
1597.7349,0.0592386,,,,
1598.6991,0.0600065,,,,
1599.6633,0.0608053,,,,
1600.6276,0.0616689,,,,
1601.5918,0.0626121,,,,
1602.5560,0.0636221,,,,
1603.5203,0.0646655,,,,
1604.4845,0.0657105,,,,
1605.4487,0.0667503,,,,
1606.4130,0.0678122,,,,
1607.3772,0.0689425,,,,
1608.3414,0.0701681,,,,
1609.3057,0.071455,,,,
1610.2699,0.0727118,,,,
1611.2341,0.0738558,,,,
1612.1984,0.0748807,,,,
1613.1626,0.0758729,,,,
1614.1268,0.0769965,,,,
1615.0911,0.0784485,,,,
1616.0553,0.0803116,,,,
1617.0195,0.0823531,,,,
1617.9838,0.0841465,,,,
1618.9480,0.0854947,,,,
1619.9122,0.0865436,,,,
1620.8765,0.0875697,,,,
1621.8407,0.0887958,,,,
1622.8049,0.0902903,,,,
1623.7692,0.0919302,,,,
1624.7334,0.0935027,,,,
1625.6976,0.0949008,,,,
1626.6619,0.0961829,,,,
1627.6261,0.0974447,,,,
1628.5903,0.0986857,,,,
1629.5546,0.0998099,,,,
1630.5188,0.100732,,,,
1631.4830,0.101459,,,,
1632.4473,0.10208,,,,
1633.4115,0.102725,,,,
1634.3757,0.103549,,,,
1635.3400,0.104666,,,,
1636.3042,0.105942,,,,
1637.2684,0.107001,,,,
1638.2327,0.107624,,,,
1639.1969,0.107881,,,,
1640.1611,0.10793,,,,
1641.1254,0.107892,,,,
1642.0896,0.107841,,,,
1643.0538,0.107815,,,,
1644.0181,0.107809,,,,
1644.9823,0.107774,,,,
1645.9465,0.107648,,,,
1646.9108,0.10741,,,,
1647.8750,0.107101,,,,
1648.8392,0.106791,,,,
1649.8035,0.106514,,,,
1650.7677,0.106222,,,,
1651.7319,0.105778,,,,
1652.6962,0.105063,,,,
1653.6604,0.104162,,,,
1654.6246,0.103214,,,,
1655.5889,0.102212,,,,
1656.5531,0.101155,,,,
1657.5173,0.100094,,,,
1658.4816,0.0990636,,,,
1659.4458,0.0980446,,,,
1660.4100,0.096976,,,,
1661.3743,0.0957945,,,,
1662.3385,0.0945015,,,,
1663.3027,0.0931844,,,,
1664.2670,0.091946,,,,
1665.2312,0.0908226,,,,
1666.1954,0.08976,,,,
1667.1597,0.0886335,,,,
1668.1239,0.0873103,,,,
1669.0881,0.0857683,,,,
1670.0524,0.0841706,,,,
1671.0166,0.0827283,,,,
1671.9808,0.0814923,,,,
1672.9451,0.0803569,,,,
1673.9093,0.0791904,,,,
1674.8735,0.0779254,,,,
1675.8378,0.0765878,,,,
1676.8020,0.075261,,,,
1677.7662,0.0740172,,,,
1678.7305,0.0728846,,,,
1679.6947,0.0718504,,,,
1680.6589,0.0708569,,,,
1681.6232,0.0697922,,,,
1682.5874,0.0685367,,,,
1683.5516,0.0671095,,,,
1684.5159,0.0657265,,,,
1685.4801,0.0645394,,,,
1686.4443,0.0634819,,,,
1687.4086,0.062434,,,,
1688.3728,0.0613421,,,,
1689.3370,0.0602274,,,,
1690.3013,0.0591607,,,,
1691.2655,0.0582159,,,,
1692.2297,0.0574197,,,,
1693.1940,0.0567297,,,,
1694.1582,0.0560547,,,,
1695.1224,0.0553123,,,,
1696.0867,0.0544977,,,,
1697.0509,0.0537049,,,,
1698.0151,0.0530468,,,,
1698.9794,0.0525262,,,,
1699.9436,0.0520182,,,,
1700.9078,0.0514041,,,,
1701.8721,0.0506783,,,,
1702.8363,0.0499132,,,,
1703.8005,0.0491778,,,,
1704.7648,0.0485057,,,,
1705.7290,0.0479091,,,,
1706.6932,0.0473948,,,,
1707.6575,0.0469573,,,,
1708.6217,0.0465683,,,,
1709.5859,0.0461884,,,,
1710.5502,0.0457892,,,,
1711.5144,0.0453663,,,,
1712.4786,0.044939,,,,
1713.4429,0.0445424,,,,
1714.4071,0.0442166,,,,
1715.3713,0.0439973,,,,
1716.3356,0.0438964,,,,
1717.2998,0.0438524,,,,
1718.2640,0.0437331,,,,
1719.2283,0.0434571,,,,
1720.1925,0.0430564,,,,
1721.1567,0.0426097,,,,
1722.1210,0.04218,,,,
1723.0852,0.0418012,,,,
1724.0494,0.0414854,,,,
1725.0137,0.0412295,,,,
1725.9779,0.0410195,,,,
1726.9421,0.0408411,,,,
1727.9064,0.0406903,,,,
1728.8706,0.0405778,,,,
1729.8348,0.0405206,,,,
1730.7991,0.0405303,,,,
1731.7633,0.0405995,,,,
1732.7275,0.0406898,,,,
1733.6918,0.0407203,,,,
1734.6560,0.0405981,,,,
1735.6202,0.0402996,,,,
1736.5845,0.0398968,,,,
1737.5487,0.0394958,,,,
1738.5129,0.0391821,,,,
1739.4772,0.0390033,,,,
1740.4414,0.0389613,,,,
1741.4056,0.039006,,,,
1742.3699,0.0390551,,,,
1743.3341,0.0390453,,,,
1744.2983,0.0389705,,,,
1745.2626,0.038876,,,,
1746.2268,0.0388299,,,,
1747.1910,0.0388916,,,,
1748.1553,0.0390763,,,,
1749.1195,0.0393195,,,,
1750.0837,0.0394843,,,,
1751.0480,0.0394536,,,,
1752.0122,0.0392221,,,,
1752.9764,0.0388805,,,,
1753.9407,0.038537,,,,
1754.9049,0.0382655,,,,
1755.8691,0.0380943,,,,
1756.8334,0.0380152,,,,
1757.7976,0.0380022,,,,
1758.7618,0.0380312,,,,
1759.7261,0.0380903,,,,
1760.6903,0.0381731,,,,
1761.6545,0.0382629,,,,
1762.6188,0.0383278,,,,
1763.5830,0.0383361,,,,
1764.5472,0.0382756,,,,
1765.5115,0.038155,,,,
1766.4757,0.0379915,,,,
1767.4399,0.0378037,,,,
1768.4042,0.0376179,,,,
1769.3684,0.0374813,,,,
1770.3326,0.0374625,,,,
1771.2969,0.0376152,,,,
1772.2611,0.0379087,,,,
1773.2253,0.0382071,,,,
1774.1896,0.0383673,,,,
1775.1538,0.0383444,,,,
1776.1180,0.0381875,,,,
1777.0823,0.0379755,,,,
1778.0465,0.0377781,,,,
1779.0107,0.0376486,,,,
1779.9750,0.037625,,,,
1780.9392,0.0377214,,,,
1781.9034,0.0379174,,,,
1782.8677,0.038158,,,,
1783.8319,0.0383666,,,,
1784.7961,0.038469,,,,
1785.7604,0.0384259,,,,
1786.7246,0.0382545,,,,
1787.6888,0.0380208,,,,
1788.6531,0.0378093,,,,
1789.6173,0.0376965,,,,
1790.5815,0.037733,,,,
1791.5458,0.0379181,,,,
1792.5100,0.0381685,,,,
1793.4742,0.0383474,,,,
1794.4385,0.0383686,,,,
1795.4027,0.03825,,,,
1796.3669,0.03807,,,,
1797.3312,0.0379091,,,,
1798.2954,0.0378253,,,,
1799.2596,0.0378455,,,,
1800.2239,0.0379565,,,,
1801.1881,0.0381056,,,,
1802.1523,0.038228,,,,
1803.1166,0.0382841,,,,
1804.0808,0.0382717,,,,
1805.0450,0.0382123,,,,
1806.0093,0.0381313,,,,
1806.9735,0.038052,,,,
1807.9377,0.0379964,,,,
1808.9020,0.0379852,,,,
1809.8662,0.038026,,,,
1810.8304,0.0380963,,,,
1811.7947,0.0381444,,,,
1812.7589,0.0381202,,,,
1813.7231,0.0380101,,,,
1814.6874,0.0378456,,,,
1815.6516,0.0376871,,,,
1816.6158,0.037597,,,,
1817.5801,0.0376126,,,,
1818.5443,0.037731,,,,
1819.5085,0.037918,,,,
1820.4728,0.038134,,,,
1821.4370,0.0383489,,,,
1822.4012,0.0385356,,,,
1823.3655,0.0386592,,,,
1824.3297,0.0386852,,,,
1825.2939,0.0386063,,,,
1826.2582,0.0384617,,,,
1827.2224,0.0383254,,,,
1828.1866,0.0382685,,,,
1829.1509,0.0383175,,,,
1830.1151,0.0384314,,,,
1831.0793,0.0385294,,,,
1832.0436,0.0385569,,,,
1833.0078,0.0385224,,,,
1833.9720,0.0384725,,,,
1834.9363,0.038447,,,,
1835.9005,0.0384529,,,,
1836.8647,0.038466,,,,
1837.8290,0.0384559,,,,
1838.7932,0.0384158,,,,
1839.7574,0.0383724,,,,
1840.7217,0.0383692,,,,
1841.6859,0.0384447,,,,
1842.6501,0.0386195,,,,
1843.6144,0.0388852,,,,
1844.5786,0.0391945,,,,
1845.5428,0.0394722,,,,
1846.5071,0.0396591,,,,
1847.4713,0.0397377,,,,
1848.4355,0.0397196,,,,
1849.3998,0.0396277,,,,
1850.3640,0.0394962,,,,
1851.3282,0.0393742,,,,
1852.2925,0.0393162,,,,
1853.2567,0.0393568,,,,
1854.2209,0.0394896,,,,
1855.1852,0.0396672,,,,
1856.1494,0.0398251,,,,
1857.1136,0.0399154,,,,
1858.0779,0.0399296,,,,
1859.0421,0.0398971,,,,
1860.0063,0.0398624,,,,
1860.9706,0.0398582,,,,
1861.9348,0.0398915,,,,
1862.8990,0.0399493,,,,
1863.8633,0.0400142,,,,
1864.8275,0.0400766,,,,
1865.7917,0.0401392,,,,
1866.7560,0.0402191,,,,
1867.7202,0.0403407,,,,
1868.6844,0.0405111,,,,
1869.6487,0.0406955,,,,
1870.6129,0.0408369,,,,
1871.5771,0.0409034,,,,
1872.5414,0.0409079,,,,
1873.5056,0.0408922,,,,
1874.4698,0.0409028,,,,
1875.4341,0.0409678,,,,
1876.3983,0.0410775,,,,
1877.3625,0.0411845,,,,
1878.3268,0.0412318,,,,
1879.2910,0.0411963,,,,
1880.2552,0.0411109,,,,
1881.2195,0.0410481,,,,
1882.1837,0.0410746,,,,
1883.1479,0.0412078,,,,
1884.1122,0.0414076,,,,
1885.0764,0.0416105,,,,
1886.0406,0.0417756,,,,
1887.0049,0.0419081,,,,
1887.9691,0.0420442,,,,
1888.9333,0.0422097,,,,
1889.8976,0.0423839,,,,
1890.8618,0.0425067,,,,
1891.8260,0.0425266,,,,
1892.7903,0.0424427,,,,
1893.7545,0.0423103,,,,
1894.7188,0.042213,,,,
1895.6830,0.0422213,,,,
1896.6472,0.0423545,,,,
1897.6115,0.0425719,,,,
1898.5757,0.0428006,,,,
1899.5399,0.0429762,,,,
1900.5042,0.0430694,,,,
1901.4684,0.0430909,,,,
1902.4326,0.0430795,,,,
1903.3969,0.0430789,,,,
1904.3611,0.0431141,,,,
1905.3253,0.0431808,,,,
1906.2896,0.0432525,,,,
1907.2538,0.0432982,,,,
1908.2180,0.0433016,,,,
1909.1823,0.0432699,,,,
1910.1465,0.0432303,,,,
1911.1107,0.0432162,,,,
1912.0750,0.0432555,,,,
1913.0392,0.0433651,,,,
1914.0034,0.0435455,,,,
1914.9677,0.0437703,,,,
1915.9319,0.0439773,,,,
1916.8961,0.0440803,,,,
1917.8604,0.0440134,,,,
1918.8246,0.0437845,,,,
1919.7888,0.0434844,,,,
1920.7531,0.0432388,,,,
1921.7173,0.0431427,,,,
1922.6815,0.0432187,,,,
1923.6458,0.0434163,,,,
1924.6100,0.0436518,,,,
1925.5742,0.0438636,,,,
1926.5385,0.0440393,,,,
1927.5027,0.044199,,,,
1928.4669,0.0443643,,,,
1929.4312,0.0445428,,,,
1930.3954,0.0447361,,,,
1931.3596,0.0449533,,,,
1932.3239,0.0452063,,,,
1933.2881,0.0454846,,,,
1934.2523,0.0457341,,,,
1935.2166,0.0458732,,,,
1936.1808,0.0458476,,,,
1937.1450,0.0456869,,,,
1938.1093,0.0455132,,,,
1939.0735,0.0454884,,,,
1940.0377,0.0457286,,,,
1941.0020,0.046222,,,,
1941.9662,0.046796,,,,
1942.9304,0.0471831,,,,
1943.8947,0.0471807,,,,
1944.8589,0.0467847,,,,
1945.8231,0.0461822,,,,
1946.7874,0.0456305,,,,
1947.7516,0.0453303,,,,
1948.7158,0.0453547,,,,
1949.6801,0.0456486,,,,
1950.6443,0.0460871,,,,
1951.6085,0.046557,,,,
1952.5728,0.0470043,,,,
1953.5370,0.0474188,,,,
1954.5012,0.0477788,,,,
1955.4655,0.0480179,,,,
1956.4297,0.0480573,,,,
1957.3939,0.0478832,,,,
1958.3582,0.0476015,,,,
1959.3224,0.0474026,,,,
1960.2866,0.0474424,,,,
1961.2509,0.0477231,,,,
1962.2151,0.0480825,,,,
1963.1793,0.0483134,,,,
1964.1436,0.0483133,,,,
1965.1078,0.0481506,,,,
1966.0720,0.0480051,,,,
1967.0363,0.0480285,,,,
1968.0005,0.0482287,,,,
1968.9647,0.0484736,,,,
1969.9290,0.048597,,,,
1970.8932,0.0484999,,,,
1971.8574,0.0481795,,,,
1972.8217,0.047715,,,,
1973.7859,0.0472565,,,,
1974.7501,0.0470165,,,,
1975.7144,0.0472099,,,,
1976.6786,0.0479278,,,,
1977.6428,0.0490221,,,,
1978.6071,0.0501386,,,,
1979.5713,0.0509262,,,,
1980.5355,0.0512614,,,,
1981.4998,0.0513053,,,,
1982.4640,0.0513709,,,,
1983.4282,0.0517152,,,,
1984.3925,0.0523887,,,,
1985.3567,0.0532172,,,,
1986.3209,0.0539162,,,,
1987.2852,0.0542603,,,,
1988.2494,0.0541976,,,,
1989.2136,0.0538503,,,,
1990.1779,0.0534239,,,,
1991.1421,0.0530906,,,,
1992.1063,0.0529112,,,,
1993.0706,0.0528357,,,,
1994.0348,0.052772,,,,
1994.9990,0.0526629,,,,
1995.9633,0.0525161,,,,
1996.9275,0.0523794,,,,
1997.8917,0.0522894,,,,
1998.8560,0.052231,,,,
1999.8202,0.0521392,,,,
2000.7844,0.0519533,,,,
2001.7487,0.0516891,,,,
2002.7129,0.0514687,,,,
2003.6771,0.0514709,,,,
2004.6414,0.0518145,,,,
2005.6056,0.0524461,,,,
2006.5698,0.0531224,,,,
2007.5341,0.0535407,,,,
2008.4983,0.0535473,,,,
2009.4625,0.0532564,,,,
2010.4268,0.0529705,,,,
2011.3910,0.0529592,,,,
2012.3552,0.0532679,,,,
2013.3195,0.0536838,,,,
2014.2837,0.053873,,,,
2015.2479,0.0536072,,,,
2016.2122,0.0529459,,,,
2017.1764,0.0522392,,,,
2018.1406,0.05191,,,,
2019.1049,0.0521598,,,,
2020.0691,0.0528307,,,,
2021.0333,0.0535324,,,,
2021.9976,0.0539285,,,,
2022.9618,0.0539748,,,,
2023.9260,0.0539525,,,,
2024.8903,0.0542641,,,,
2025.8545,0.0551224,,,,
2026.8187,0.0563539,,,,
2027.7830,0.057474,,,,
2028.7472,0.0579924,,,,
2029.7114,0.0577379,,,,
2030.6757,0.0569819,,,,
2031.6399,0.0562776,,,,
2032.6041,0.0561203,,,,
2033.5684,0.0566456,,,,
2034.5326,0.0575605,,,,
2035.4968,0.0583509,,,,
2036.4611,0.0586173,,,,
2037.4253,0.0583096,,,,
2038.3895,0.0577325,,,,
2039.3538,0.0573481,,,,
2040.3180,0.0575049,,,,
2041.2822,0.0582412,,,,
2042.2465,0.0592786,,,,
2043.2107,0.0602168,,,,
2044.1749,0.0607933,,,,
2045.1392,0.0610254,,,,
2046.1034,0.0611445,,,,
2047.0676,0.061386,,,,
2048.0320,0.0617964,,,,
2048.9961,0.0622134,,,,
2049.9604,0.0624324,,,,
2050.9246,0.062391,,,,
2051.8889,0.0622103,,,,
2052.8530,0.0620864,,,,
2053.8174,0.0621423,,,,
2054.7815,0.062351,,,,
2055.7458,0.0625747,,,,
2056.7100,0.0626846,,,,
2057.6743,0.0626612,,,,
2058.6384,0.0625958,,,,
2059.6028,0.0626035,,,,
2060.5669,0.0627322,,,,
2061.5313,0.0629392,,,,
2062.4954,0.0631419,,,,
2063.4597,0.0632852,,,,
2064.4238,0.0633672,,,,
2065.3882,0.0634122,,,,
2066.3523,0.0634312,,,,
2067.3167,0.0634171,,,,
2068.2808,0.0633757,,,,
2069.2451,0.0633524,,,,
2070.2092,0.0634165,,,,
2071.1736,0.0636077,,,,
2072.1377,0.0638904,,,,
2073.1021,0.0641576,,,,
2074.0662,0.0642932,,,,
2075.0305,0.064248,,,,
2075.9946,0.0640754,,,,
2076.9590,0.0639021,,,,
2077.9231,0.0638569,,,,
2078.8875,0.0640041,,,,
2079.8516,0.0643198,,,,
2080.8159,0.0647169,,,,
2081.7800,0.0650959,,,,
2082.7444,0.0653891,,,,
2083.7085,0.0655766,,,,
2084.6729,0.0656726,,,,
2085.6370,0.0656966,,,,
2086.6013,0.0656515,,,,
2087.5654,0.0655244,,,,
2088.5298,0.0653103,,,,
2089.4939,0.0650399,,,,
2090.4583,0.0647887,,,,
2091.4224,0.064653,,,,
2092.3867,0.0647056,,,,
2093.3508,0.0649606,,,,
2094.3152,0.0653703,,,,
2095.2793,0.0658602,,,,
2096.2437,0.0663746,,,,
2097.2078,0.0668963,,,,
2098.1721,0.0674213,,,,
2099.1362,0.0679123,,,,
2100.1006,0.0682785,,,,
2101.0647,0.0684119,,,,
2102.0291,0.0682574,,,,
2102.9932,0.0678707,,,,
2103.9575,0.0674118,,,,
2104.9216,0.0670716,,,,
2105.8860,0.0669786,,,,
2106.8501,0.0671473,,,,
2107.8145,0.0674986,,,,
2108.7786,0.0679278,,,,
2109.7429,0.0683634,,,,
2110.7070,0.0687765,,,,
2111.6714,0.0691452,,,,
2112.6355,0.0694182,,,,
2113.5999,0.0695194,,,,
2114.5640,0.0693942,,,,
2115.5283,0.0690601,,,,
2116.4924,0.0686145,,,,
2117.4568,0.0681871,,,,
2118.4209,0.0678685,,,,
2119.3853,0.0676668,,,,
2120.3494,0.0675216,,,,
2121.3137,0.0673658,,,,
2122.2778,0.0671878,,,,
2123.2422,0.0670472,,,,
2124.2063,0.0670284,,,,
2125.1707,0.0671641,,,,
2126.1348,0.067384,,,,
2127.0991,0.067528,,,,
2128.0632,0.0674246,,,,
2129.0276,0.0669899,,,,
2129.9917,0.0662916,,,,
2130.9561,0.0655381,,,,
2131.9202,0.0649956,,,,
2132.8845,0.0648679,,,,
2133.8486,0.0651954,,,,
2134.8130,0.0658293,,,,
2135.7771,0.0665013,,,,
2136.7415,0.0669588,,,,
2137.7056,0.0670789,,,,
2138.6699,0.0668949,,,,
2139.6340,0.066535,,,,
2140.5984,0.0661335,,,,
2141.5625,0.0657791,,,,
2142.5269,0.0655181,,,,
2143.4910,0.0653841,,,,
2144.4553,0.0654085,,,,
2145.4194,0.0655908,,,,
2146.3838,0.0658572,,,,
2147.3479,0.0660585,,,,
2148.3123,0.0660345,,,,
2149.2764,0.0657125,,,,
2150.2407,0.0651661,,,,
2151.2048,0.0645867,,,,
2152.1692,0.0641823,,,,
2153.1333,0.0640766,,,,
2154.0977,0.0642783,,,,
2155.0618,0.0647335,,,,
2156.0261,0.0654071,,,,
2156.9902,0.0663204,,,,
2157.9546,0.0674978,,,,
2158.9187,0.0688634,,,,
2159.8831,0.0702093,,,,
2160.8472,0.0713049,,,,
2161.8115,0.0720394,,,,
2162.7756,0.0724542,,,,
2163.7400,0.0726743,,,,
2164.7041,0.072827,,,,
2165.6685,0.0729992,,,,
2166.6326,0.0732291,,,,
2167.5969,0.0735064,,,,
2168.5610,0.0737692,,,,
2169.5254,0.0739065,,,,
2170.4895,0.0737869,,,,
2171.4539,0.0733205,,,,
2172.4180,0.0725265,,,,
2173.3823,0.071562,,,,
2174.3464,0.0706756,,,,
2175.3108,0.070098,,,,
2176.2749,0.0699352,,,,
2177.2393,0.0701378,,,,
2178.2034,0.0705645,,,,
2179.1677,0.0710846,,,,
2180.1318,0.0716411,,,,
2181.0962,0.0722339,,,,
2182.0603,0.0728505,,,,
2183.0247,0.073409,,,,
2183.9888,0.073768,,,,
2184.9531,0.0738038,,,,
2185.9172,0.0734965,,,,
2186.8816,0.0729627,,,,
2187.8457,0.0724125,,,,
2188.8101,0.072056,,,,
2189.7742,0.0720129,,,,
2190.7385,0.0722729,,,,
2191.7026,0.0727238,,,,
2192.6670,0.0732199,,,,
2193.6311,0.0736431,,,,
2194.5955,0.0739214,,,,
2195.5596,0.0740084,,,,
2196.5239,0.0738601,,,,
2197.4880,0.0734437,,,,
2198.4524,0.072781,,,,
2199.4165,0.0719871,,,,
2200.3809,0.071259,,,,
2201.3450,0.0708049,,,,
2202.3093,0.0707499,,,,
2203.2734,0.0710793,,,,
2204.2378,0.0716561,,,,
2205.2019,0.0722981,,,,
2206.1663,0.0728604,,,,
2207.1304,0.0732736,,,,
2208.0947,0.0735287,,,,
2209.0588,0.073641,,,,
2210.0232,0.0736273,,,,
2210.9873,0.0735084,,,,
2211.9517,0.073318,,,,
2212.9158,0.0730997,,,,
2213.8801,0.0728929,,,,
2214.8442,0.072722,,,,
2215.8086,0.0726001,,,,
2216.7727,0.0725363,,,,
2217.7371,0.0725296,,,,
2218.7012,0.0725498,,,,
2219.6655,0.072526,,,,
2220.6296,0.0723733,,,,
2221.5940,0.072054,,,,
2222.5581,0.0716331,,,,
2223.5225,0.0712789,,,,
2224.4866,0.0711901,,,,
2225.4509,0.0714869,,,,
2226.4150,0.0721348,,,,
2227.3794,0.0729491,,,,
2228.3435,0.0736805,,,,
2229.3079,0.074127,,,,
2230.2720,0.0742119,,,,
2231.2363,0.0739928,,,,
2232.2004,0.0736129,,,,
2233.1648,0.0732316,,,,
2234.1289,0.072973,,,,
2235.0933,0.0729043,,,,
2236.0574,0.0730398,,,,
2237.0217,0.0733549,,,,
2237.9858,0.0737956,,,,
2238.9502,0.0742803,,,,
2239.9143,0.0747007,,,,
2240.8787,0.0749388,,,,
2241.8428,0.0749058,,,,
2242.8071,0.0745964,,,,
2243.7712,0.074123,,,,
2244.7356,0.0736946,,,,
2245.6997,0.0735299,,,,
2246.6641,0.0737427,,,,
2247.6282,0.0742661,,,,
2248.5925,0.0748736,,,,
2249.5566,0.0752959,,,,
2250.5210,0.0753669,,,,
2251.4851,0.0751083,,,,
2252.4495,0.0747024,,,,
2253.4136,0.0743748,,,,
2254.3779,0.0742666,,,,
2255.3420,0.0743766,,,,
2256.3064,0.0746012,,,,
2257.2705,0.074827,,,,
2258.2349,0.0750026,,,,
2259.1990,0.0751444,,,,
2260.1633,0.0752919,,,,
2261.1274,0.0754592,,,,
2262.0918,0.0756213,,,,
2263.0559,0.0757386,,,,
2264.0203,0.075792,,,,
2264.9844,0.075798,,,,
2265.9487,0.0757971,,,,
2266.9128,0.0758287,,,,
2267.8772,0.0759144,,,,
2268.8413,0.0760571,,,,
2269.8057,0.0762485,,,,
2270.7698,0.076474,,,,
2271.7341,0.0767119,,,,
2272.6982,0.0769335,,,,
2273.6626,0.0771111,,,,
2274.6267,0.0772321,,,,
2275.5911,0.0773108,,,,
2276.5552,0.0773858,,,,
2277.5195,0.077504,,,,
2278.4836,0.0776985,,,,
2279.4480,0.0779732,,,,
2280.4121,0.0783021,,,,
2281.3765,0.0786422,,,,
2282.3406,0.0789539,,,,
2283.3049,0.0792161,,,,
2284.2690,0.079432,,,,
2285.2334,0.0796219,,,,
2286.1975,0.0798082,,,,
2287.1619,0.08,,,,
2288.1260,0.0801866,,,,
2289.0903,0.080342,,,,
2290.0544,0.0804407,,,,
2291.0188,0.0804724,,,,
2291.9829,0.0804491,,,,
2292.9473,0.0804,,,,
2293.9114,0.0803588,,,,
2294.8757,0.0803527,,,,
2295.8398,0.0803976,,,,
2296.8042,0.0805009,,,,
2297.7683,0.0806631,,,,
2298.7327,0.0808762,,,,
2299.6968,0.0811197,,,,
2300.6611,0.0813628,,,,
2301.6252,0.0815756,,,,
2302.5896,0.0817461,,,,
2303.5537,0.0818911,,,,
2304.5181,0.0820506,,,,
2305.4822,0.0822669,,,,
2306.4465,0.0825594,,,,
2307.4106,0.0829112,,,,
2308.3750,0.0832749,,,,
2309.3391,0.0835944,,,,
2310.3035,0.0838301,,,,
2311.2676,0.0839724,,,,
2312.2319,0.0840387,,,,
2313.1960,0.0840593,,,,
2314.1604,0.0840631,,,,
2315.1245,0.0840742,,,,
2316.0889,0.0841218,,,,
2317.0530,0.0842534,,,,
2318.0173,0.0845373,,,,
2318.9814,0.0850391,,,,
2319.9458,0.0857694,,,,
2320.9099,0.086629,,,,
2321.8743,0.0874059,,,,
2322.8384,0.0878578,,,,
2323.8027,0.0878365,,,,
2324.7668,0.0873592,,,,
2325.7312,0.0865856,,,,
2326.6953,0.0857357,,,,
2327.6597,0.0850056,,,,
2328.6238,0.0845067,,,,
2329.5881,0.0842438,,,,
2330.5522,0.0841403,,,,
2331.5166,0.0841024,,,,
2332.4807,0.0840758,,,,
2333.4451,0.0840556,,,,
2334.4092,0.0840559,,,,
2335.3735,0.0840832,,,,
2336.3376,0.0841394,,,,
2337.3020,0.0842405,,,,
2338.2661,0.0844255,,,,
2339.2305,0.084738,,,,
2340.1946,0.0851926,,,,
2341.1589,0.0857531,,,,
2342.1230,0.0863368,,,,
2343.0874,0.0868417,,,,
2344.0515,0.0871922,,,,
2345.0159,0.0873814,,,,
2345.9800,0.0874588,,,,
2346.9443,0.0874714,,,,
2347.9084,0.087428,,,,
2348.8728,0.0873163,,,,
2349.8369,0.0871343,,,,
2350.8013,0.0869092,,,,
2351.7654,0.0866989,,,,
2352.7297,0.086581,,,,
2353.6938,0.0866345,,,,
2354.6582,0.0869182,,,,
2355.6223,0.0874443,,,,
2356.5867,0.0881516,,,,
2357.5508,0.0888947,,,,
2358.5151,0.0894786,,,,
2359.4792,0.0897425,,,,
2360.4436,0.0896468,,,,
2361.4077,0.0892917,,,,
2362.3721,0.0888504,,,,
2363.3362,0.088476,,,,
2364.3005,0.0882463,,,,
2365.2646,0.0881637,,,,
2366.2290,0.0881867,,,,
2367.1931,0.0882644,,,,
2368.1575,0.0883563,,,,
2369.1216,0.0884406,,,,
2370.0859,0.0885172,,,,
2371.0500,0.0886038,,,,
2372.0144,0.088726,,,,
2372.9785,0.0888999,,,,
2373.9429,0.0891186,,,,
2374.9070,0.0893503,,,,
2375.8713,0.0895487,,,,
2376.8354,0.0896724,,,,
2377.7998,0.0897006,,,,
2378.7639,0.089641,,,,
2379.7283,0.089525,,,,
2380.6924,0.0893938,,,,
2381.6567,0.0892821,,,,
2382.6208,0.0892045,,,,
2383.5852,0.089151,,,,
2384.5493,0.0890947,,,,
2385.5137,0.0890089,,,,
2386.4778,0.0888857,,,,
2387.4421,0.0887472,,,,
2388.4063,0.0886403,,,,
2389.3706,0.0886157,,,,
2390.3347,0.0887022,,,,
2391.2991,0.0888902,,,,
2392.2632,0.0891361,,,,
2393.2275,0.0893837,,,,
2394.1917,0.0895921,,,,
2395.1560,0.0897527,,,,
2396.1201,0.0898889,,,,
2397.0845,0.0900394,,,,
2398.0486,0.0902364,,,,
2399.0129,0.0904871,,,,
2399.9771,0.0907687,,,,
2400.9414,0.0910386,,,,
2401.9055,0.0912555,,,,
2402.8699,0.0914036,,,,
2403.8340,0.0915062,,,,
2404.7983,0.0916204,,,,
2405.7625,0.0918088,,,,
2406.7268,0.0921055,,,,
2407.6909,0.0924936,,,,
2408.6553,0.092914,,,,
2409.6194,0.0933004,,,,
2410.5837,0.0936189,,,,
2411.5479,0.0938857,,,,
2412.5122,0.0941503,,,,
2413.4763,0.0944571,,,,
2414.4407,0.0948115,,,,
2415.4048,0.095176,,,,
2416.3691,0.0954968,,,,
2417.3333,0.095742,,,,
2418.2976,0.0959248,,,,
2419.2617,0.0960941,,,,
2420.2261,0.0963029,,,,
2421.1902,0.096576,,,,
2422.1545,0.0969,,,,
2423.1187,0.0972393,,,,
2424.0830,0.0975644,,,,
2425.0471,0.0978703,,,,
2426.0115,0.0981752,,,,
2426.9756,0.0985018,,,,
2427.9399,0.0988585,,,,
2428.9041,0.0992349,,,,
2429.8684,0.0996133,,,,
2430.8325,0.0999861,,,,
2431.7969,0.100364,,,,
2432.7610,0.100768,,,,
2433.7253,0.101211,,,,
2434.6895,0.101677,,,,
2435.6538,0.102126,,,,
2436.6179,0.102509,,,,
2437.5823,0.102798,,,,
2438.5464,0.103004,,,,
2439.5107,0.103179,,,,
2440.4749,0.103392,,,,
2441.4392,0.103697,,,,
2442.4033,0.104109,,,,
2443.3677,0.104598,,,,
2444.3318,0.105104,,,,
2445.2961,0.105573,,,,
2446.2603,0.105973,,,,
2447.2246,0.106308,,,,
2448.1887,0.106609,,,,
2449.1531,0.10691,,,,
2450.1172,0.107234,,,,
2451.0815,0.107585,,,,
2452.0457,0.107952,,,,
2453.0100,0.108321,,,,
2453.9741,0.108679,,,,
2454.9385,0.10902,,,,
2455.9026,0.109345,,,,
2456.8669,0.109658,,,,
2457.8311,0.109968,,,,
2458.7954,0.110283,,,,
2459.7595,0.110616,,,,
2460.7239,0.110975,,,,
2461.6880,0.111363,,,,
2462.6523,0.111768,,,,
2463.6165,0.112168,,,,
2464.5808,0.11253,,,,
2465.5449,0.112832,,,,
2466.5093,0.11307,,,,
2467.4734,0.113266,,,,
2468.4377,0.113469,,,,
2469.4019,0.113727,,,,
2470.3662,0.114066,,,,
2471.3303,0.114471,,,,
2472.2947,0.114891,,,,
2473.2588,0.115262,,,,
2474.2231,0.115545,,,,
2475.1873,0.115742,,,,
2476.1516,0.115904,,,,
2477.1157,0.116098,,,,
2478.0801,0.116371,,,,
2479.0442,0.11673,,,,
2480.0085,0.117133,,,,
2480.9727,0.117521,,,,
2481.9370,0.117839,,,,
2482.9011,0.11807,,,,
2483.8655,0.118239,,,,
2484.8296,0.118393,,,,
2485.7939,0.118583,,,,
2486.7581,0.118832,,,,
2487.7224,0.119128,,,,
2488.6865,0.11943,,,,
2489.6509,0.119694,,,,
2490.6150,0.1199,,,,
2491.5793,0.120065,,,,
2492.5435,0.120231,,,,
2493.5078,0.120443,,,,
2494.4719,0.120718,,,,
2495.4363,0.121032,,,,
2496.4004,0.12134,,,,
2497.3647,0.121602,,,,
2498.3289,0.121803,,,,
2499.2932,0.121962,,,,
2500.2573,0.122111,,,,
2501.2217,0.122274,,,,
2502.1858,0.122459,,,,
2503.1501,0.122656,,,,
2504.1143,0.122848,,,,
2505.0786,0.123027,,,,
2506.0427,0.123187,,,,
2507.0071,0.123332,,,,
2507.9712,0.123466,,,,
2508.9355,0.123601,,,,
2509.8997,0.123756,,,,
2510.8640,0.123948,,,,
2511.8281,0.124189,,,,
2512.7925,0.124473,,,,
2513.7566,0.124785,,,,
2514.7209,0.125106,,,,
2515.6851,0.12542,,,,
2516.6494,0.125714,,,,
2517.6135,0.125972,,,,
2518.5779,0.12618,,,,
2519.5420,0.126334,,,,
2520.5063,0.126453,,,,
2521.4705,0.126581,,,,
2522.4348,0.126775,,,,
2523.3989,0.127072,,,,
2524.3633,0.127465,,,,
2525.3274,0.127898,,,,
2526.2917,0.128297,,,,
2527.2559,0.1286,,,,
2528.2202,0.128795,,,,
2529.1843,0.128917,,,,
2530.1487,0.129022,,,,
2531.1128,0.129156,,,,
2532.0771,0.129328,,,,
2533.0413,0.129519,,,,
2534.0056,0.129707,,,,
2534.9697,0.129894,,,,
2535.9341,0.130103,,,,
2536.8982,0.130366,,,,
2537.8625,0.130693,,,,
2538.8267,0.131055,,,,
2539.7910,0.1314,,,,
2540.7551,0.131678,,,,
2541.7195,0.131866,,,,
2542.6836,0.131981,,,,
2543.6479,0.13206,,,,
2544.6121,0.132144,,,,
2545.5764,0.132264,,,,
2546.5405,0.132445,,,,
2547.5049,0.132707,,,,
2548.4690,0.133063,,,,
2549.4333,0.133501,,,,
2550.3975,0.133975,,,,
2551.3618,0.134413,,,,
2552.3259,0.134755,,,,
2553.2903,0.134983,,,,
2554.2544,0.135137,,,,
2555.2188,0.135292,,,,
2556.1829,0.135512,,,,
2557.1472,0.135812,,,,
2558.1113,0.136163,,,,
2559.0757,0.136509,,,,
2560.0398,0.136815,,,,
2561.0042,0.137079,,,,
2561.9683,0.13733,,,,
2562.9326,0.137601,,,,
2563.8967,0.13791,,,,
2564.8611,0.138252,,,,
2565.8252,0.138609,,,,
2566.7896,0.138968,,,,
2567.7537,0.139324,,,,
2568.7180,0.139683,,,,
2569.6821,0.140048,,,,
2570.6465,0.140413,,,,
2571.6106,0.14076,,,,
2572.5750,0.14107,,,,
2573.5391,0.141333,,,,
2574.5034,0.141557,,,,
2575.4675,0.141769,,,,
2576.4319,0.142003,,,,
2577.3960,0.142283,,,,
2578.3604,0.142611,,,,
2579.3245,0.142968,,,,
2580.2888,0.14333,,,,
2581.2529,0.143682,,,,
2582.2173,0.144032,,,,
2583.1814,0.144403,,,,
2584.1458,0.144817,,,,
2585.1099,0.145277,,,,
2586.0742,0.145762,,,,
2587.0383,0.146236,,,,
2588.0027,0.146673,,,,
2588.9668,0.147067,,,,
2589.9312,0.147435,,,,
2590.8953,0.147805,,,,
2591.8596,0.148199,,,,
2592.8237,0.148622,,,,
2593.7881,0.149064,,,,
2594.7522,0.149514,,,,
2595.7166,0.14997,,,,
2596.6807,0.150447,,,,
2597.6450,0.150963,,,,
2598.6091,0.151528,,,,
2599.5735,0.15213,,,,
2600.5376,0.152739,,,,
2601.5020,0.153315,,,,
2602.4661,0.153828,,,,
2603.4304,0.154274,,,,
2604.3945,0.154676,,,,
2605.3589,0.155077,,,,
2606.3230,0.155526,,,,
2607.2874,0.156058,,,,
2608.2515,0.156685,,,,
2609.2158,0.157389,,,,
2610.1799,0.158127,,,,
2611.1443,0.158843,,,,
2612.1084,0.159488,,,,
2613.0728,0.160038,,,,
2614.0369,0.160508,,,,
2615.0012,0.160943,,,,
2615.9653,0.161402,,,,
2616.9297,0.16193,,,,
2617.8938,0.162544,,,,
2618.8582,0.163226,,,,
2619.8223,0.163941,,,,
2620.7866,0.164652,,,,
2621.7507,0.165342,,,,
2622.7151,0.16601,,,,
2623.6792,0.166665,,,,
2624.6436,0.167318,,,,
2625.6077,0.167973,,,,
2626.5720,0.168631,,,,
2627.5361,0.169294,,,,
2628.5005,0.169968,,,,
2629.4646,0.170664,,,,
2630.4290,0.17139,,,,
2631.3931,0.172144,,,,
2632.3574,0.172912,,,,
2633.3215,0.173668,,,,
2634.2859,0.174384,,,,
2635.2500,0.175047,,,,
2636.2144,0.175668,,,,
2637.1785,0.17628,,,,
2638.1428,0.176927,,,,
2639.1069,0.177639,,,,
2640.0713,0.178418,,,,
2641.0354,0.179234,,,,
2641.9998,0.180047,,,,
2642.9639,0.180826,,,,
2643.9282,0.181565,,,,
2644.8923,0.182281,,,,
2645.8567,0.183002,,,,
2646.8208,0.183748,,,,
2647.7852,0.184526,,,,
2648.7493,0.18533,,,,
2649.7136,0.186141,,,,
2650.6777,0.18694,,,,
2651.6421,0.18771,,,,
2652.6062,0.188442,,,,
2653.5706,0.189143,,,,
2654.5347,0.189836,,,,
2655.4990,0.190548,,,,
2656.4631,0.191295,,,,
2657.4275,0.19207,,,,
2658.3916,0.192846,,,,
2659.3560,0.19359,,,,
2660.3201,0.194282,,,,
2661.2844,0.194928,,,,
2662.2485,0.195546,,,,
2663.2129,0.196158,,,,
2664.1770,0.196767,,,,
2665.1414,0.197368,,,,
2666.1055,0.197952,,,,
2667.0698,0.198528,,,,
2668.0339,0.199121,,,,
2668.9983,0.199759,,,,
2669.9624,0.200458,,,,
2670.9268,0.201209,,,,
2671.8909,0.201986,,,,
2672.8552,0.202757,,,,
2673.8193,0.2035,,,,
2674.7837,0.204212,,,,
2675.7478,0.204899,,,,
2676.7122,0.205574,,,,
2677.6763,0.206239,,,,
2678.6406,0.206895,,,,
2679.6047,0.207536,,,,
2680.5691,0.208162,,,,
2681.5332,0.208781,,,,
2682.4976,0.209405,,,,
2683.4617,0.210042,,,,
2684.4260,0.210696,,,,
2685.3901,0.211354,,,,
2686.3545,0.212003,,,,
2687.3186,0.212631,,,,
2688.2830,0.213235,,,,
2689.2471,0.213822,,,,
2690.2114,0.214404,,,,
2691.1755,0.214986,,,,
2692.1399,0.215564,,,,
2693.1040,0.216129,,,,
2694.0684,0.21667,,,,
2695.0325,0.217183,,,,
2695.9968,0.217667,,,,
2696.9609,0.21813,,,,
2697.9253,0.218581,,,,
2698.8894,0.21903,,,,
2699.8538,0.219485,,,,
2700.8179,0.21995,,,,
2701.7822,0.220427,,,,
2702.7463,0.220911,,,,
2703.7107,0.221399,,,,
2704.6748,0.22189,,,,
2705.6392,0.222387,,,,
2706.6033,0.222887,,,,
2707.5676,0.223385,,,,
2708.5317,0.223867,,,,
2709.4961,0.224314,,,,
2710.4602,0.224716,,,,
2711.4246,0.225075,,,,
2712.3887,0.225403,,,,
2713.3530,0.225718,,,,
2714.3171,0.226037,,,,
2715.2815,0.226373,,,,
2716.2456,0.226735,,,,
2717.2100,0.227127,,,,
2718.1741,0.227545,,,,
2719.1384,0.227979,,,,
2720.1025,0.228411,,,,
2721.0669,0.228824,,,,
2722.0310,0.229208,,,,
2722.9954,0.229566,,,,
2723.9595,0.22991,,,,
2724.9238,0.230251,,,,
2725.8879,0.230593,,,,
2726.8523,0.230935,,,,
2727.8164,0.231277,,,,
2728.7808,0.231626,,,,
2729.7449,0.231996,,,,
2730.7092,0.232399,,,,
2731.6733,0.232838,,,,
2732.6377,0.233304,,,,
2733.6018,0.233776,,,,
2734.5662,0.234232,,,,
2735.5303,0.234659,,,,
2736.4946,0.235054,,,,
2737.4587,0.235423,,,,
2738.4231,0.235783,,,,
2739.3872,0.236149,,,,
2740.3516,0.236534,,,,
2741.3157,0.236945,,,,
2742.2800,0.237385,,,,
2743.2441,0.237851,,,,
2744.2085,0.238336,,,,
2745.1726,0.238835,,,,
2746.1370,0.239342,,,,
2747.1011,0.239854,,,,
2748.0654,0.240372,,,,
2749.0295,0.240903,,,,
2749.9939,0.241453,,,,
2750.9580,0.242026,,,,
2751.9224,0.242619,,,,
2752.8865,0.243221,,,,
2753.8508,0.243819,,,,
2754.8149,0.244409,,,,
2755.7793,0.244998,,,,
2756.7434,0.245603,,,,
2757.7078,0.246242,,,,
2758.6719,0.246924,,,,
2759.6362,0.247645,,,,
2760.6003,0.248392,,,,
2761.5647,0.249147,,,,
2762.5288,0.2499,,,,
2763.4932,0.250655,,,,
2764.4573,0.251424,,,,
2765.4216,0.252228,,,,
2766.3857,0.253079,,,,
2767.3501,0.25398,,,,
2768.3142,0.254915,,,,
2769.2786,0.255858,,,,
2770.2427,0.256777,,,,
2771.2070,0.257651,,,,
2772.1711,0.258482,,,,
2773.1355,0.259294,,,,
2774.0996,0.260127,,,,
2775.0640,0.261017,,,,
2776.0281,0.261976,,,,
2776.9924,0.262989,,,,
2777.9565,0.26402,,,,
2778.9209,0.265031,,,,
2779.8850,0.266002,,,,
2780.8494,0.266941,,,,
2781.8135,0.267876,,,,
2782.7778,0.268842,,,,
2783.7419,0.269862,,,,
2784.7063,0.270939,,,,
2785.6704,0.27206,,,,
2786.6348,0.273195,,,,
2787.5989,0.274317,,,,
2788.5632,0.275405,,,,
2789.5273,0.276455,,,,
2790.4917,0.277484,,,,
2791.4558,0.278526,,,,
2792.4202,0.279614,,,,
2793.3843,0.280764,,,,
2794.3486,0.281967,,,,
2795.3127,0.283191,,,,
2796.2771,0.284403,,,,
2797.2412,0.285592,,,,
2798.2056,0.286774,,,,
2799.1697,0.287982,,,,
2800.1340,0.289242,,,,
2801.0981,0.290549,,,,
2802.0625,0.291874,,,,
2803.0266,0.293181,,,,
2803.9910,0.294455,,,,
2804.9551,0.295714,,,,
2805.9194,0.296992,,,,
2806.8835,0.29832,,,,
2807.8479,0.299706,,,,
2808.8120,0.301133,,,,
2809.7764,0.302583,,,,
2810.7405,0.304046,,,,
2811.7048,0.305533,,,,
2812.6689,0.307061,,,,
2813.6333,0.308635,,,,
2814.5974,0.310239,,,,
2815.5618,0.311841,,,,
2816.5259,0.313412,,,,
2817.4902,0.314941,,,,
2818.4543,0.316442,,,,
2819.4187,0.317948,,,,
2820.3828,0.319491,,,,
2821.3472,0.321091,,,,
2822.3113,0.32275,,,,
2823.2756,0.324461,,,,
2824.2397,0.326219,,,,
2825.2041,0.328029,,,,
2826.1682,0.329903,,,,
2827.1326,0.331848,,,,
2828.0967,0.333854,,,,
2829.0610,0.335892,,,,
2830.0251,0.337924,,,,
2830.9895,0.339923,,,,
2831.9536,0.341892,,,,
2832.9180,0.343859,,,,
2833.8821,0.345863,,,,
2834.8464,0.347929,,,,
2835.8105,0.350063,,,,
2836.7749,0.352249,,,,
2837.7390,0.354472,,,,
2838.7034,0.356733,,,,
2839.6675,0.359053,,,,
2840.6318,0.36146,,,,
2841.5959,0.363965,,,,
2842.5603,0.366551,,,,
2843.5244,0.36917,,,,
2844.4888,0.371765,,,,
2845.4529,0.374296,,,,
2846.4172,0.376753,,,,
2847.3813,0.379164,,,,
2848.3457,0.381575,,,,
2849.3098,0.384027,,,,
2850.2742,0.386533,,,,
2851.2383,0.389072,,,,
2852.2026,0.391602,,,,
2853.1667,0.394075,,,,
2854.1311,0.396459,,,,
2855.0952,0.398745,,,,
2856.0596,0.400952,,,,
2857.0237,0.403111,,,,
2857.9880,0.405258,,,,
2858.9521,0.407419,,,,
2859.9165,0.409604,,,,
2860.8806,0.411802,,,,
2861.8450,0.41398,,,,
2862.8091,0.416101,,,,
2863.7734,0.418142,,,,
2864.7375,0.420107,,,,
2865.7019,0.422028,,,,
2866.6660,0.42395,,,,
2867.6304,0.425905,,,,
2868.5945,0.427899,,,,
2869.5588,0.429907,,,,
2870.5229,0.431891,,,,
2871.4873,0.433815,,,,
2872.4514,0.435661,,,,
2873.4158,0.437427,,,,
2874.3799,0.43912,,,,
2875.3442,0.44075,,,,
2876.3083,0.44233,,,,
2877.2727,0.443874,,,,
2878.2368,0.445392,,,,
2879.2012,0.446883,,,,
2880.1653,0.448327,,,,
2881.1296,0.449681,,,,
2882.0938,0.450895,,,,
2883.0581,0.451929,,,,
2884.0222,0.452775,,,,
2884.9866,0.453458,,,,
2885.9507,0.454025,,,,
2886.9150,0.454527,,,,
2887.8792,0.454999,,,,
2888.8435,0.455452,,,,
2889.8076,0.455875,,,,
2890.7720,0.456242,,,,
2891.7361,0.456531,,,,
2892.7004,0.456727,,,,
2893.6646,0.456829,,,,
2894.6289,0.456858,,,,
2895.5930,0.456848,,,,
2896.5574,0.45684,,,,
2897.5215,0.456867,,,,
2898.4858,0.456943,,,,
2899.4500,0.45706,,,,
2900.4143,0.457196,,,,
2901.3784,0.45733,,,,
2902.3428,0.457453,,,,
2903.3069,0.45758,,,,
2904.2712,0.45774,,,,
2905.2354,0.457961,,,,
2906.1997,0.458259,,,,
2907.1638,0.458622,,,,
2908.1282,0.45902,,,,
2909.0923,0.459408,,,,
2910.0566,0.459752,,,,
2911.0208,0.460037,,,,
2911.9851,0.460279,,,,
2912.9492,0.460505,,,,
2913.9136,0.460747,,,,
2914.8777,0.461008,,,,
2915.8420,0.461265,,,,
2916.8062,0.461467,,,,
2917.7705,0.461562,,,,
2918.7346,0.461514,,,,
2919.6990,0.461317,,,,
2920.6631,0.460979,,,,
2921.6274,0.46051,,,,
2922.5916,0.459906,,,,
2923.5559,0.459148,,,,
2924.5200,0.458221,,,,
2925.4844,0.457122,,,,
2926.4485,0.455865,,,,
2927.4128,0.454468,,,,
2928.3770,0.452941,,,,
2929.3413,0.451276,,,,
2930.3054,0.44946,,,,
2931.2698,0.447477,,,,
2932.2339,0.445326,,,,
2933.1982,0.443015,,,,
2934.1624,0.440553,,,,
2935.1267,0.437948,,,,
2936.0908,0.435203,,,,
2937.0552,0.432322,,,,
2938.0193,0.429311,,,,
2938.9836,0.426177,,,,
2939.9478,0.422931,,,,
2940.9121,0.419586,,,,
2941.8762,0.416162,,,,
2942.8406,0.412687,,,,
2943.8047,0.409189,,,,
2944.7690,0.405692,,,,
2945.7332,0.402216,,,,
2946.6975,0.398773,,,,
2947.6616,0.39538,,,,
2948.6260,0.392056,,,,
2949.5901,0.388816,,,,
2950.5544,0.385664,,,,
2951.5186,0.382587,,,,
2952.4829,0.379564,,,,
2953.4470,0.376583,,,,
2954.4114,0.373653,,,,
2955.3755,0.370809,,,,
2956.3398,0.368102,,,,
2957.3040,0.365583,,,,
2958.2683,0.363287,,,,
2959.2324,0.361217,,,,
2960.1968,0.359341,,,,
2961.1609,0.357596,,,,
2962.1252,0.35591,,,,
2963.0894,0.354229,,,,
2964.0537,0.352536,,,,
2965.0178,0.35086,,,,
2965.9822,0.349259,,,,
2966.9463,0.347783,,,,
2967.9106,0.346456,,,,
2968.8748,0.345269,,,,
2969.8391,0.344197,,,,
2970.8032,0.343217,,,,
2971.7676,0.342311,,,,
2972.7317,0.341465,,,,
2973.6960,0.340659,,,,
2974.6602,0.339863,,,,
2975.6245,0.339057,,,,
2976.5886,0.338242,,,,
2977.5530,0.337441,,,,
2978.5171,0.33669,,,,
2979.4814,0.336021,,,,
2980.4456,0.335448,,,,
2981.4099,0.334973,,,,
2982.3740,0.334588,,,,
2983.3384,0.334289,,,,
2984.3025,0.334075,,,,
2985.2668,0.33395,,,,
2986.2310,0.333917,,,,
2987.1953,0.333984,,,,
2988.1594,0.33416,,,,
2989.1238,0.334456,,,,
2990.0879,0.334872,,,,
2991.0522,0.335403,,,,
2992.0164,0.336035,,,,
2992.9807,0.336755,,,,
2993.9448,0.337562,,,,
2994.9092,0.338464,,,,
2995.8733,0.339475,,,,
2996.8376,0.340601,,,,
2997.8018,0.341834,,,,
2998.7661,0.343154,,,,
2999.7302,0.344542,,,,
3000.6946,0.345991,,,,
3001.6587,0.347504,,,,
3002.6230,0.349087,,,,
3003.5872,0.35074,,,,
3004.5515,0.35245,,,,
3005.5156,0.3542,,,,
3006.4800,0.355977,,,,
3007.4441,0.357786,,,,
3008.4084,0.359637,,,,
3009.3726,0.361537,,,,
3010.3369,0.363485,,,,
3011.3010,0.365467,,,,
3012.2654,0.367475,,,,
3013.2295,0.369512,,,,
3014.1938,0.371594,,,,
3015.1580,0.37374,,,,
3016.1223,0.375959,,,,
3017.0864,0.37825,,,,
3018.0508,0.380602,,,,
3019.0149,0.383005,,,,
3019.9792,0.385455,,,,
3020.9434,0.38795,,,,
3021.9077,0.390482,,,,
3022.8718,0.393037,,,,
3023.8362,0.395596,,,,
3024.8003,0.398143,,,,
3025.7646,0.400674,,,,
3026.7288,0.4032,,,,
3027.6931,0.405736,,,,
3028.6572,0.408295,,,,
3029.6216,0.410886,,,,
3030.5857,0.413513,,,,
3031.5500,0.416184,,,,
3032.5142,0.418909,,,,
3033.4785,0.4217,,,,
3034.4426,0.424548,,,,
3035.4070,0.427426,,,,
3036.3711,0.430286,,,,
3037.3354,0.433093,,,,
3038.2996,0.435845,,,,
3039.2639,0.438586,,,,
3040.2280,0.441388,,,,
3041.1924,0.44431,,,,
3042.1565,0.447362,,,,
3043.1208,0.450495,,,,
3044.0850,0.45363,,,,
3045.0493,0.4567,,,,
3046.0134,0.45969,,,,
3046.9778,0.462637,,,,
3047.9419,0.4656,,,,
3048.9063,0.468628,,,,
3049.8704,0.471725,,,,
3050.8347,0.474866,,,,
3051.7988,0.478017,,,,
3052.7632,0.481168,,,,
3053.7273,0.484343,,,,
3054.6917,0.487583,,,,
3055.6558,0.490917,,,,
3056.6201,0.494336,,,,
3057.5842,0.497781,,,,
3058.5486,0.501174,,,,
3059.5127,0.50445,,,,
3060.4771,0.507597,,,,
3061.4412,0.51066,,,,
3062.4055,0.51373,,,,
3063.3696,0.516902,,,,
3064.3340,0.520242,,,,
3065.2981,0.523755,,,,
3066.2625,0.527391,,,,
3067.2266,0.531067,,,,
3068.1909,0.534705,,,,
3069.1550,0.538262,,,,
3070.1194,0.541735,,,,
3071.0835,0.545148,,,,
3072.0479,0.548529,,,,
3073.0120,0.551896,,,,
3073.9763,0.555265,,,,
3074.9404,0.558658,,,,
3075.9048,0.562112,,,,
3076.8689,0.565668,,,,
3077.8333,0.569345,,,,
3078.7974,0.573121,,,,
3079.7617,0.57694,,,,
3080.7258,0.580744,,,,
3081.6902,0.584511,,,,
3082.6543,0.588266,,,,
3083.6187,0.592052,,,,
3084.5828,0.595889,,,,
3085.5471,0.599746,,,,
3086.5112,0.603555,,,,
3087.4756,0.60726,,,,
3088.4397,0.610866,,,,
3089.4041,0.614445,,,,
3090.3682,0.618096,,,,
3091.3325,0.621886,,,,
3092.2966,0.625799,,,,
3093.2610,0.629745,,,,
3094.2251,0.633614,,,,
3095.1895,0.637347,,,,
3096.1536,0.640983,,,,
3097.1179,0.644639,,,,
3098.0820,0.648444,,,,
3099.0464,0.652463,,,,
3100.0105,0.656654,,,,
3100.9749,0.660888,,,,
3101.9390,0.665009,,,,
3102.9033,0.668911,,,,
3103.8674,0.672585,,,,
3104.8318,0.676124,,,,
3105.7959,0.679679,,,,
3106.7603,0.683397,,,,
3107.7244,0.687369,,,,
3108.6887,0.691576,,,,
3109.6528,0.695894,,,,
3110.6172,0.700129,,,,
3111.5813,0.704105,,,,
3112.5457,0.707751,,,,
3113.5098,0.711138,,,,
3114.4741,0.71445,,,,
3115.4382,0.717899,,,,
3116.4026,0.721624,,,,
3117.3667,0.72564,,,,
3118.3311,0.72986,,,,
3119.2952,0.734158,,,,
3120.2595,0.738438,,,,
3121.2236,0.742651,,,,
3122.1880,0.746779,,,,
3123.1521,0.750814,,,,
3124.1165,0.754756,,,,
3125.0806,0.758628,,,,
3126.0449,0.762491,,,,
3127.0090,0.766433,,,,
3127.9734,0.770527,,,,
3128.9375,0.774785,,,,
3129.9019,0.779133,,,,
3130.8660,0.783427,,,,
3131.8303,0.787502,,,,
3132.7944,0.791247,,,,
3133.7588,0.794659,,,,
3134.7229,0.797868,,,,
3135.6873,0.801088,,,,
3136.6514,0.804538,,,,
3137.6157,0.808357,,,,
3138.5798,0.812551,,,,
3139.5442,0.817006,,,,
3140.5083,0.821538,,,,
3141.4727,0.825978,,,,
3142.4368,0.830228,,,,
3143.4011,0.834263,,,,
3144.3652,0.838086,,,,
3145.3296,0.84169,,,,
3146.2937,0.845053,,,,
3147.2581,0.848184,,,,
3148.2222,0.851175,,,,
3149.1865,0.854212,,,,
3150.1506,0.857508,,,,
3151.1150,0.861208,,,,
3152.0791,0.865304,,,,
3153.0435,0.869637,,,,
3154.0076,0.873972,,,,
3154.9719,0.878111,,,,
3155.9360,0.88197,,,,
3156.9004,0.885589,,,,
3157.8645,0.889076,,,,
3158.8289,0.892535,,,,
3159.7930,0.896026,,,,
3160.7573,0.899561,,,,
3161.7214,0.90313,,,,
3162.6858,0.906716,,,,
3163.6499,0.910296,,,,
3164.6143,0.913851,,,,
3165.5784,0.917366,,,,
3166.5427,0.920844,,,,
3167.5068,0.924304,,,,
3168.4712,0.927761,,,,
3169.4353,0.931523,,,,
3170.3997,0.934878,,,,
3171.3638,0.938085,,,,
3172.3281,0.941118,,,,
3173.2922,0.944024,,,,
3174.2566,0.946918,,,,
3175.2207,0.949931,,,,
3176.1851,0.953151,,,,
3177.1492,0.956579,,,,
3178.1135,0.960143,,,,
3179.0776,0.963722,,,,
3180.0420,0.967201,,,,
3181.0061,0.970485,,,,
3181.9705,0.973515,,,,
3182.9346,0.976263,,,,
3183.8989,0.978755,,,,
3184.8630,0.981081,,,,
3185.8274,0.983392,,,,
3186.7915,0.985851,,,,
3187.7559,0.988578,,,,
3188.7200,0.991601,,,,
3189.6843,0.994847,,,,
3190.6484,0.998184,,,,
3191.6128,1.00147,,,,
3192.5769,1.00459,,,,
3193.5413,1.00749,,,,
3194.5054,1.01019,,,,
3195.4697,1.01272,,,,
3196.4338,1.01515,,,,
3197.3982,1.01753,,,,
3198.3623,1.01992,,,,
3199.3267,1.02233,,,,
3200.2908,1.02473,,,,
3201.2551,1.02709,,,,
3202.2192,1.0294,,,,
3203.1836,1.03171,,,,
3204.1477,1.0341,,,,
3205.1121,1.03665,,,,
3206.0762,1.03932,,,,
3207.0405,1.04202,,,,
3208.0046,1.04457,,,,
3208.9690,1.04686,,,,
3209.9331,1.04883,,,,
3210.8975,1.05054,,,,
3211.8616,1.0521,,,,
3212.8259,1.05364,,,,
3213.7900,1.05522,,,,
3214.7544,1.05687,,,,
3215.7185,1.05863,,,,
3216.6829,1.06052,,,,
3217.6470,1.06256,,,,
3218.6113,1.06475,,,,
3219.5754,1.06701,,,,
3220.5398,1.06926,,,,
3221.5039,1.07142,,,,
3222.4683,1.07344,,,,
3223.4324,1.0753,,,,
3224.3967,1.07696,,,,
3225.3608,1.07841,,,,
3226.3252,1.0796,,,,
3227.2893,1.08054,,,,
3228.2537,1.08132,,,,
3229.2178,1.08213,,,,
3230.1821,1.08319,,,,
3231.1462,1.08467,,,,
3232.1106,1.08661,,,,
3233.0747,1.08886,,,,
3234.0391,1.09114,,,,
3235.0032,1.09318,,,,
3235.9675,1.09477,,,,
3236.9316,1.09592,,,,
3237.8960,1.09677,,,,
3238.8601,1.09751,,,,
3239.8245,1.09828,,,,
3240.7886,1.09907,,,,
3241.7529,1.09981,,,,
3242.7170,1.10047,,,,
3243.6814,1.10112,,,,
3244.6455,1.10193,,,,
3245.6099,1.10303,,,,
3246.5740,1.10446,,,,
3247.5383,1.10603,,,,
3248.5024,1.10744,,,,
3249.4668,1.10843,,,,
3250.4309,1.1089,,,,
3251.3953,1.10893,,,,
3252.3594,1.10881,,,,
3253.3237,1.10882,,,,
3254.2878,1.10917,,,,
3255.2522,1.10992,,,,
3256.2163,1.11095,,,,
3257.1807,1.11207,,,,
3258.1448,1.11308,,,,
3259.1091,1.1139,,,,
3260.0732,1.11451,,,,
3261.0376,1.11498,,,,
3262.0017,1.11537,,,,
3262.9661,1.11569,,,,
3263.9302,1.11585,,,,
3264.8945,1.11578,,,,
3265.8586,1.11549,,,,
3266.8230,1.1151,,,,
3267.7871,1.1148,,,,
3268.7515,1.11478,,,,
3269.7156,1.11511,,,,
3270.6799,1.11571,,,,
3271.6440,1.1164,,,,
3272.6084,1.11699,,,,
3273.5725,1.11735,,,,
3274.5369,1.11743,,,,
3275.5010,1.11729,,,,
3276.4653,1.11706,,,,
3277.4294,1.11684,,,,
3278.3938,1.11675,,,,
3279.3579,1.11683,,,,
3280.3223,1.11706,,,,
3281.2864,1.11739,,,,
3282.2507,1.11769,,,,
3283.2148,1.11787,,,,
3284.1792,1.11781,,,,
3285.1433,1.11744,,,,
3286.1077,1.11675,,,,
3287.0718,1.11578,,,,
3288.0361,1.11465,,,,
3289.0002,1.11352,,,,
3289.9646,1.11254,,,,
3290.9287,1.11183,,,,
3291.8931,1.1114,,,,
3292.8572,1.11122,,,,
3293.8215,1.1112,,,,
3294.7856,1.11128,,,,
3295.7500,1.11139,,,,
3296.7141,1.11144,,,,
3297.6785,1.11127,,,,
3298.6426,1.11076,,,,
3299.6069,1.1098,,,,
3300.5710,1.10844,,,,
3301.5354,1.10686,,,,
3302.4995,1.10529,,,,
3303.4639,1.10399,,,,
3304.4280,1.1031,,,,
3305.3923,1.10267,,,,
3306.3564,1.10264,,,,
3307.3208,1.10285,,,,
3308.2849,1.10308,,,,
3309.2493,1.10308,,,,
3310.2134,1.10269,,,,
3311.1777,1.10185,,,,
3312.1418,1.10068,,,,
3313.1062,1.09937,,,,
3314.0703,1.09814,,,,
3315.0347,1.09709,,,,
3315.9988,1.09622,,,,
3316.9631,1.09539,,,,
3317.9272,1.09447,,,,
3318.8916,1.09336,,,,
3319.8557,1.09206,,,,
3320.8201,1.09063,,,,
3321.7842,1.08922,,,,
3322.7485,1.08793,,,,
3323.7126,1.08685,,,,
3324.6770,1.08594,,,,
3325.6411,1.08514,,,,
3326.6055,1.08429,,,,
3327.5696,1.08328,,,,
3328.5339,1.08204,,,,
3329.4980,1.08058,,,,
3330.4624,1.07893,,,,
3331.4265,1.07713,,,,
3332.3909,1.07519,,,,
3333.3550,1.07316,,,,
3334.3193,1.07112,,,,
3335.2834,1.06921,,,,
3336.2478,1.06754,,,,
3337.2119,1.06613,,,,
3338.1763,1.06491,,,,
3339.1404,1.06369,,,,
3340.1047,1.06233,,,,
3341.0688,1.06079,,,,
3342.0332,1.05907,,,,
3342.9973,1.05724,,,,
3343.9617,1.0553,,,,
3344.9258,1.05323,,,,
3345.8901,1.05102,,,,
3346.8542,1.04874,,,,
3347.8186,1.04656,,,,
3348.7827,1.04465,,,,
3349.7471,1.04314,,,,
3350.7112,1.04195,,,,
3351.6755,1.04085,,,,
3352.6396,1.03956,,,,
3353.6040,1.03781,,,,
3354.5681,1.03557,,,,
3355.5325,1.03298,,,,
3356.4966,1.03032,,,,
3357.4609,1.02785,,,,
3358.4250,1.02567,,,,
3359.3894,1.02369,,,,
3360.3535,1.02169,,,,
3361.3179,1.01943,,,,
3362.2820,1.0168,,,,
3363.2463,1.01385,,,,
3364.2104,1.0108,,,,
3365.1748,1.00794,,,,
3366.1389,1.00546,,,,
3367.1033,1.00343,,,,
3368.0674,1.00174,,,,
3369.0317,1.00015,,,,
3369.9958,0.998367,,,,
3370.9602,0.996165,,,,
3371.9243,0.993457,,,,
3372.8887,0.990335,,,,
3373.8528,0.987034,,,,
3374.8171,0.983846,,,,
3375.7813,0.981007,,,,
3376.7456,0.978625,,,,
3377.7097,0.97665,,,,
3378.6741,0.974916,,,,
3379.6382,0.973202,,,,
3380.6025,0.971301,,,,
3381.5667,0.969055,,,,
3382.5310,0.966385,,,,
3383.4951,0.963287,,,,
3384.4595,0.95984,,,,
3385.4236,0.956188,,,,
3386.3879,0.952511,,,,
3387.3521,0.948981,,,,
3388.3164,0.945724,,,,
3389.2805,0.942795,,,,
3390.2449,0.940167,,,,
3391.2090,0.937728,,,,
3392.1733,0.935299,,,,
3393.1375,0.932669,,,,
3394.1018,0.929667,,,,
3395.0659,0.926235,,,,
3396.0303,0.922467,,,,
3396.9944,0.918601,,,,
3397.9587,0.914934,,,,
3398.9229,0.911705,,,,
3399.8872,0.90898,,,,
3400.8513,0.906616,,,,
3401.8157,0.904313,,,,
3402.7798,0.901751,,,,
3403.7441,0.898728,,,,
3404.7083,0.895246,,,,
3405.6726,0.891485,,,,
3406.6367,0.887698,,,,
3407.6011,0.884102,,,,
3408.5652,0.8808,,,,
3409.5295,0.877784,,,,
3410.4937,0.874962,,,,
3411.4580,0.872209,,,,
3412.4221,0.869403,,,,
3413.3865,0.866444,,,,
3414.3506,0.863269,,,,
3415.3149,0.859868,,,,
3416.2791,0.856286,,,,
3417.2434,0.85262,,,,
3418.2075,0.84899,,,,
3419.1719,0.845498,,,,
3420.1360,0.842183,,,,
3421.1003,0.838986,,,,
3422.0645,0.83577,,,,
3423.0288,0.832398,,,,
3423.9929,0.828806,,,,
3424.9573,0.825034,,,,
3425.9214,0.821197,,,,
3426.8857,0.817409,,,,
3427.8499,0.813715,,,,
3428.8142,0.810069,,,,
3429.7783,0.806368,,,,
3430.7427,0.802536,,,,
3431.7068,0.798586,,,,
3432.6711,0.794628,,,,
3433.6353,0.790822,,,,
3434.5996,0.787284,,,,
3435.5637,0.784027,,,,
3436.5281,0.780949,,,,
3437.4922,0.777876,,,,
3438.4565,0.774649,,,,
3439.4207,0.77119,,,,
3440.3850,0.767545,,,,
3441.3491,0.763844,,,,
3442.3135,0.760228,,,,
3443.2776,0.756763,,,,
3444.2419,0.753398,,,,
3445.2061,0.749998,,,,
3446.1704,0.746414,,,,
3447.1345,0.742566,,,,
3448.0989,0.738493,,,,
3449.0630,0.734316,,,,
3450.0273,0.730179,,,,
3450.9915,0.726175,,,,
3451.9558,0.722326,,,,
3452.9199,0.718592,,,,
3453.8843,0.714894,,,,
3454.8484,0.711161,,,,
3455.8127,0.707362,,,,
3456.7769,0.703521,,,,
3457.7412,0.699694,,,,
3458.7053,0.695919,,,,
3459.6697,0.69217,,,,
3460.6338,0.688357,,,,
3461.5981,0.684368,,,,
3462.5623,0.680145,,,,
3463.5266,0.675727,,,,
3464.4907,0.671244,,,,
3465.4551,0.666854,,,,
3466.4192,0.662672,,,,
3467.3835,0.658745,,,,
3468.3477,0.655049,,,,
3469.3120,0.651516,,,,
3470.2761,0.648051,,,,
3471.2405,0.644532,,,,
3472.2046,0.640829,,,,
3473.1689,0.636843,,,,
3474.1331,0.632575,,,,
3475.0974,0.628154,,,,
3476.0615,0.623802,,,,
3477.0259,0.619717,,,,
3477.9900,0.615967,,,,
3478.9543,0.612448,,,,
3479.9185,0.608931,,,,
3480.8828,0.605178,,,,
3481.8469,0.601076,,,,
3482.8113,0.596693,,,,
3483.7754,0.592219,,,,
3484.7397,0.587849,,,,
3485.7039,0.583693,,,,
3486.6682,0.579758,,,,
3487.6323,0.57597,,,,
3488.5967,0.572222,,,,
3489.5608,0.568407,,,,
3490.5251,0.56446,,,,
3491.4893,0.560354,,,,
3492.4536,0.556093,,,,
3493.4177,0.551704,,,,
3494.3821,0.547239,,,,
3495.3462,0.542793,,,,
3496.3105,0.538492,,,,
3497.2747,0.534453,,,,
3498.2390,0.530716,,,,
3499.2031,0.527207,,,,
3500.1675,0.523745,,,,
3501.1316,0.520112,,,,
3502.0959,0.516177,,,,
3503.0601,0.511995,,,,
3504.0244,0.507775,,,,
3504.9885,0.503712,,,,
3505.9529,0.499846,,,,
3506.9170,0.49604,,,,
3507.8813,0.492085,,,,
3508.8455,0.487848,,,,
3509.8098,0.483376,,,,
3510.7739,0.478875,,,,
3511.7383,0.474564,,,,
3512.7024,0.470524,,,,
3513.6667,0.466676,,,,
3514.6309,0.462854,,,,
3515.5952,0.458913,,,,
3516.5593,0.454807,,,,
3517.5237,0.450608,,,,
3518.4878,0.446454,,,,
3519.4521,0.442474,,,,
3520.4163,0.438738,,,,
3521.3806,0.435233,,,,
3522.3447,0.431883,,,,
3523.3091,0.428572,,,,
3524.2732,0.425178,,,,
3525.2375,0.421597,,,,
3526.2017,0.417762,,,,
3527.1660,0.413662,,,,
3528.1301,0.409356,,,,
3529.0945,0.40496,,,,
3530.0586,0.400614,,,,
3531.0229,0.396418,,,,
3531.9871,0.392401,,,,
3532.9514,0.388524,,,,
3533.9155,0.384712,,,,
3534.8799,0.380893,,,,
3535.8440,0.377037,,,,
3536.8083,0.373162,,,,
3537.7725,0.369331,,,,
3538.7368,0.365627,,,,
3539.7009,0.36213,,,,
3540.6653,0.358887,,,,
3541.6294,0.355881,,,,
3542.5938,0.353001,,,,
3543.5579,0.350045,,,,
3544.5222,0.346795,,,,
3545.4863,0.343138,,,,
3546.4507,0.339157,,,,
3547.4148,0.335086,,,,
3548.3792,0.331161,,,,
3549.3433,0.327507,,,,
3550.3076,0.324099,,,,
3551.2717,0.32079,,,,
3552.2361,0.317398,,,,
3553.2002,0.313808,,,,
3554.1646,0.310053,,,,
3555.1287,0.306288,,,,
3556.0930,0.302692,,,,
3557.0571,0.299362,,,,
3558.0215,0.296279,,,,
3558.9856,0.293339,,,,
3559.9500,0.290439,,,,
3560.9141,0.287572,,,,
3561.8784,0.284832,,,,
3562.8425,0.28234,,,,
3563.8069,0.280111,,,,
3564.7710,0.277966,,,,
3565.7354,0.27555,,,,
3566.6995,0.272516,,,,
3567.6638,0.268795,,,,
3568.6279,0.26466,,,,
3569.5923,0.260491,,,,
3570.5564,0.256544,,,,
3571.5208,0.252881,,,,
3572.4849,0.249432,,,,
3573.4492,0.246098,,,,
3574.4133,0.242845,,,,
3575.3777,0.239739,,,,
3576.3418,0.236868,,,,
3577.3062,0.234244,,,,
3578.2703,0.231756,,,,
3579.2346,0.229234,,,,
3580.1987,0.226572,,,,
3581.1631,0.223818,,,,
3582.1272,0.221153,,,,
3583.0916,0.218773,,,,
3584.0557,0.216756,,,,
3585.0200,0.21499,,,,
3585.9841,0.213196,,,,
3586.9485,0.211062,,,,
3587.9126,0.208442,,,,
3588.8770,0.205464,,,,
3589.8411,0.202417,,,,
3590.8054,0.199541,,,,
3591.7695,0.19691,,,,
3592.7339,0.194434,,,,
3593.6980,0.191949,,,,
3594.6624,0.18935,,,,
3595.6265,0.186661,,,,
3596.5908,0.184,,,,
3597.5549,0.181468,,,,
3598.5193,0.179081,,,,
3599.4834,0.176762,,,,
3600.4478,0.174417,,,,
3601.4119,0.172011,,,,
3602.3762,0.169606,,,,
3603.3403,0.167317,,,,
3604.3047,0.165234,,,,
3605.2688,0.163369,,,,
3606.2332,0.161653,,,,
3607.1973,0.159976,,,,
3608.1616,0.158235,,,,
3609.1257,0.156369,,,,
3610.0901,0.154374,,,,
3611.0542,0.152301,,,,
3612.0186,0.150228,,,,
3612.9827,0.148226,,,,
3613.9470,0.146334,,,,
3614.9111,0.144552,,,,
3615.8755,0.142865,,,,
3616.8396,0.141269,,,,
3617.8040,0.139785,,,,
3618.7681,0.138421,,,,
3619.7324,0.13708,,,,
3620.6965,0.135563,,,,
3621.6609,0.133754,,,,
3622.6250,0.13176,,,,
3623.5894,0.12983,,,,
3624.5535,0.12819,,,,
3625.5178,0.126943,,,,
3626.4819,0.126058,,,,
3627.4463,0.125401,,,,
3628.4104,0.124729,,,,
3629.3748,0.123652,,,,
3630.3389,0.121883,,,,
3631.3032,0.119542,,,,
3632.2673,0.116979,,,,
3633.2317,0.114478,,,,
3634.1958,0.112163,,,,
3635.1602,0.110058,,,,
3636.1243,0.108149,,,,
3637.0886,0.106422,,,,
3638.0527,0.10486,,,,
3639.0171,0.103431,,,,
3639.9812,0.102085,,,,
3640.9456,0.100765,,,,
3641.9097,0.0994361,,,,
3642.8740,0.0981104,,,,
3643.8381,0.0968547,,,,
3644.8025,0.0957651,,,,
3645.7666,0.0949518,,,,
3646.7310,0.0945686,,,,
3647.6951,0.094813,,,,
3648.6594,0.0955625,,,,
3649.6235,0.0958963,,,,
3650.5879,0.0949194,,,,
3651.5520,0.0928244,,,,
3652.5164,0.0903889,,,,
3653.4805,0.0882224,,,,
3654.4448,0.0865757,,,,
3655.4089,0.0853963,,,,
3656.3733,0.0844252,,,,
3657.3374,0.0833565,,,,
3658.3018,0.0820479,,,,
3659.2659,0.0805996,,,,
3660.2302,0.0792198,,,,
3661.1943,0.0780443,,,,
3662.1587,0.0770621,,,,
3663.1228,0.0761668,,,,
3664.0872,0.0752784,,,,
3665.0513,0.0744247,,,,
3666.0156,0.0737277,,,,
3666.9797,0.0733266,,,,
3667.9441,0.0732932,,,,
3668.9082,0.0735219,,,,
3669.8726,0.0736554,,,,
3670.8367,0.073299,,,,
3671.8010,0.0723924,,,,
3672.7651,0.0712403,,,,
3673.7295,0.0702944,,,,
3674.6936,0.0699751,,,,
3675.6580,0.0703741,,,,
3676.6221,0.0709515,,,,
3677.5864,0.0709817,,,,
3678.5505,0.0702832,,,,
3679.5149,0.0691547,,,,
3680.4790,0.0679413,,,,
3681.4434,0.066828,,,,
3682.4075,0.0658497,,,,
3683.3718,0.0649739,,,,
3684.3359,0.0641775,,,,
3685.3003,0.0634896,,,,
3686.2644,0.0630142,,,,
3687.2288,0.0629636,,,,
3688.1929,0.0636085,,,,
3689.1572,0.0649385,,,,
3690.1213,0.0663193,,,,
3691.0857,0.0669677,,,,
3692.0498,0.0666972,,,,
3693.0142,0.0658475,,,,
3693.9783,0.0648313,,,,
3694.9426,0.0639037,,,,
3695.9067,0.0631538,,,,
3696.8711,0.0625822,,,,
3697.8352,0.0621874,,,,
3698.7996,0.062017,,,,
3699.7637,0.062151,,,,
3700.7280,0.0626062,,,,
3701.6921,0.063213,,,,
3702.6565,0.0636267,,,,
3703.6206,0.063548,,,,
3704.5850,0.0629342,,,,
3705.5491,0.0619808,,,,
3706.5134,0.0609707,,,,
3707.4775,0.0601699,,,,
3708.4419,0.0598166,,,,
3709.4060,0.0601199,,,,
3710.3704,0.0611035,,,,
3711.3345,0.0623211,,,,
3712.2988,0.0630138,,,,
3713.2629,0.0627902,,,,
3714.2273,0.0618515,,,,
3715.1914,0.0606368,,,,
3716.1558,0.0595219,,,,
3717.1199,0.0587464,,,,
3718.0842,0.058431,,,,
3719.0483,0.0585877,,,,
3720.0127,0.0591143,,,,
3720.9768,0.0598167,,,,
3721.9412,0.0604875,,,,
3722.9053,0.0609911,,,,
3723.8696,0.061288,,,,
3724.8337,0.06139,,,,
3725.7981,0.061303,,,,
3726.7622,0.0610208,,,,
3727.7266,0.0605623,,,,
3728.6907,0.0599921,,,,
3729.6550,0.0594052,,,,
3730.6191,0.0589134,,,,
3731.5835,0.058663,,,,
3732.5476,0.0588624,,,,
3733.5120,0.0597156,,,,
3734.4761,0.0611278,,,,
3735.4404,0.0624274,,,,
3736.4045,0.0627697,,,,
3737.3689,0.0619102,,,,
3738.3330,0.0602658,,,,
3739.2974,0.0584475,,,,
3740.2615,0.0569547,,,,
3741.2258,0.056129,,,,
3742.1899,0.0561851,,,,
3743.1543,0.0571413,,,,
3744.1184,0.0585702,,,,
3745.0828,0.059587,,,,
3746.0469,0.0595448,,,,
3747.0112,0.058574,,,,
3747.9753,0.0572841,,,,
3748.9397,0.0563437,,,,
3749.9038,0.0562806,,,,
3750.8682,0.0571056,,,,
3751.8323,0.0580201,,,,
3752.7966,0.0581745,,,,
3753.7607,0.0575154,,,,
3754.7251,0.0565174,,,,
3755.6892,0.0556494,,,,
3756.6536,0.0551778,,,,
3757.6177,0.0551426,,,,
3758.5820,0.055358,,,,
3759.5461,0.0555037,,,,
3760.5105,0.0553493,,,,
3761.4746,0.0548981,,,,
3762.4390,0.0543121,,,,
3763.4031,0.053762,,,,
3764.3674,0.053349,,,,
3765.3315,0.053104,,,,
3766.2959,0.0530252,,,,
3767.2600,0.0531146,,,,
3768.2244,0.0533796,,,,
3769.1885,0.0537831,,,,
3770.1528,0.0541861,,,,
3771.1169,0.0543767,,,,
3772.0813,0.0542,,,,
3773.0454,0.0536647,,,,
3774.0098,0.0529257,,,,
3774.9739,0.0521955,,,,
3775.9382,0.0516737,,,,
3776.9023,0.0515044,,,,
3777.8667,0.051723,,,,
3778.8308,0.0521966,,,,
3779.7952,0.0526653,,,,
3780.7593,0.0529159,,,,
3781.7236,0.0529087,,,,
3782.6877,0.0527407,,,,
3783.6521,0.052539,,,,
3784.6162,0.0523914,,,,
3785.5806,0.0523261,,,,
3786.5447,0.0523237,,,,
3787.5090,0.0523383,,,,
3788.4731,0.0523162,,,,
3789.4375,0.052211,,,,
3790.4016,0.0519978,,,,
3791.3660,0.0516867,,,,
3792.3301,0.0513209,,,,
3793.2944,0.0509578,,,,
3794.2585,0.0506361,,,,
3795.2229,0.0503526,,,,
3796.1870,0.0500752,,,,
3797.1514,0.0498035,,,,
3798.1155,0.0496314,,,,
3799.0798,0.0497437,,,,
3800.0439,0.0502968,,,,
3801.0083,0.0512005,,,,
3801.9724,0.0520402,,,,
3802.9368,0.0523927,,,,
3803.9009,0.0521987,,,,
3804.8652,0.0517448,,,,
3805.8293,0.0513989,,,,
3806.7937,0.0513571,,,,
3807.7578,0.0514925,,,,
3808.7222,0.0514623,,,,
3809.6863,0.0510393,,,,
3810.6506,0.0502835,,,,
3811.6147,0.0494294,,,,
3812.5791,0.0487274,,,,
3813.5432,0.048363,,,,
3814.5076,0.0483987,,,,
3815.4717,0.0487071,,,,
3816.4360,0.049023,,,,
3817.4001,0.0491737,,,,
3818.3645,0.0492392,,,,
3819.3286,0.0494655,,,,
3820.2930,0.0500196,,,,
3821.2571,0.0507631,,,,
3822.2214,0.0513155,,,,
3823.1855,0.0514104,,,,
3824.1499,0.051077,,,,
3825.1140,0.050506,,,,
3826.0784,0.0498819,,,,
3827.0425,0.0493278,,,,
3828.0068,0.048923,,,,
3828.9709,0.0487251,,,,
3829.9353,0.0487637,,,,
3830.8994,0.0490101,,,,
3831.8638,0.0493562,,,,
3832.8279,0.04964,,,,
3833.7922,0.0497209,,,,
3834.7563,0.0495637,,,,
3835.7207,0.0492719,,,,
3836.6848,0.0490415,,,,
3837.6492,0.0490315,,,,
3838.6133,0.0492204,,,,
3839.5776,0.049416,,,,
3840.5417,0.049461,,,,
3841.5061,0.0493814,,,,
3842.4702,0.0493139,,,,
3843.4346,0.0493417,,,,
3844.3987,0.0494048,,,,
3845.3630,0.0493392,,,,
3846.3271,0.0489988,,,,
3847.2915,0.0483491,,,,
3848.2556,0.0474764,,,,
3849.2200,0.0465556,,,,
3850.1841,0.045855,,,,
3851.1484,0.0458062,,,,
3852.1125,0.0469667,,,,
3853.0769,0.0493818,,,,
3854.0410,0.0518067,,,,
3855.0054,0.0528475,,,,
3855.9697,0.0524372,,,,
3856.9338,0.0512558,,,,
3857.8982,0.0498821,,,,
3858.8623,0.048633,,,,
3859.8267,0.0476732,,,,
3860.7908,0.0471153,,,,
3861.7551,0.0470338,,,,
3862.7192,0.0473806,,,,
3863.6836,0.047906,,,,
3864.6477,0.0482766,,,,
3865.6121,0.0483219,,,,
3866.5762,0.0481226,,,,
3867.5405,0.0479017,,,,
3868.5046,0.0478844,,,,
3869.4690,0.0481918,,,,
3870.4331,0.0487688,,,,
3871.3975,0.0493897,,,,
3872.3616,0.0497862,,,,
3873.3259,0.0498043,,,,
3874.2900,0.0494571,,,,
3875.2544,0.0488744,,,,
3876.2185,0.0482373,,,,
3877.1829,0.0477328,,,,
3878.1470,0.0475153,,,,
3879.1113,0.0476487,,,,
3880.0754,0.0480471,,,,
3881.0398,0.0485029,,,,
3882.0039,0.0488372,,,,
3882.9683,0.0490239,,,,
3883.9324,0.0491372,,,,
3884.8967,0.0491928,,,,
3885.8608,0.0490777,,,,
3886.8252,0.048663,,,,
3887.7893,0.0479734,,,,
3888.7537,0.047233,,,,
3889.7178,0.0467729,,,,
3890.6821,0.0468536,,,,
3891.6462,0.0474377,,,,
3892.6106,0.0481219,,,,
3893.5747,0.0484522,,,,
3894.5391,0.0482955,,,,
3895.5032,0.047838,,,,
3896.4675,0.0473613,,,,
3897.4316,0.0470756,,,,
3898.3960,0.0470505,,,,
3899.3601,0.0472243,,,,
3900.3245,0.0475045,,,,
3901.2886,0.0478941,,,,
3902.2529,0.0484775,,,,
3903.2170,0.0492354,,,,
3904.1814,0.0499197,,,,
3905.1455,0.0502043,,,,
3906.1099,0.0499605,,,,
3907.0740,0.0493312,,,,
3908.0383,0.0485874,,,,
3909.0024,0.0479623,,,,
3909.9668,0.0475644,,,,
3910.9309,0.0473685,,,,
3911.8953,0.0472717,,,,
3912.8594,0.0471852,,,,
3913.8237,0.0471058,,,,
3914.7878,0.0471209,,,,
3915.7522,0.047338,,,,
3916.7163,0.0477759,,,,
3917.6807,0.0483015,,,,
3918.6448,0.0487037,,,,
3919.6091,0.0488542,,,,
3920.5732,0.0487858,,,,
3921.5376,0.0486353,,,,
3922.5017,0.0485338,,,,
3923.4661,0.0485203,,,,
3924.4302,0.0485191,,,,
3925.3945,0.048409,,,,
3926.3586,0.0481378,,,,
3927.3230,0.0477759,,,,
3928.2871,0.047473,,,,
3929.2515,0.0473728,,,,
3930.2156,0.0475317,,,,
3931.1799,0.0478713,,,,
3932.1440,0.0482126,,,,
3933.1084,0.0483957,,,,
3934.0725,0.0483776,,,,
3935.0369,0.0482157,,,,
3936.0010,0.0479871,,,,
3936.9653,0.0477388,,,,
3937.9294,0.0474943,,,,
3938.8938,0.0472871,,,,
3939.8579,0.0471786,,,,
3940.8223,0.0472308,,,,
3941.7864,0.0474457,,,,
3942.7507,0.0477277,,,,
3943.7148,0.0479298,,,,
3944.6792,0.0479558,,,,
3945.6433,0.0478222,,,,
3946.6077,0.0476324,,,,
3947.5718,0.0474996,,,,
3948.5361,0.0474719,,,,
3949.5002,0.0475054,,,,
3950.4646,0.0475082,,,,
3951.4287,0.0474207,,,,
3952.3931,0.0472534,,,,
3953.3572,0.0470601,,,,
3954.3215,0.0468866,,,,
3955.2856,0.0467415,,,,
3956.2500,0.0466053,,,,
3957.2141,0.046463,,,,
3958.1785,0.0463294,,,,
3959.1426,0.0462467,,,,
3960.1069,0.0462552,,,,
3961.0710,0.0463654,,,,
3962.0354,0.0465492,,,,
3962.9995,0.0467581,,,,
3963.9639,0.0469467,,,,
3964.9280,0.0470821,,,,
3965.8923,0.0471377,,,,
3966.8564,0.0470872,,,,
3967.8208,0.0469156,,,,
3968.7849,0.0466412,,,,
3969.7493,0.0463279,,,,
3970.7134,0.0460667,,,,
3971.6777,0.0459311,,,,
3972.6418,0.0459351,,,,
3973.6062,0.0460251,,,,
3974.5703,0.0461152,,,,
3975.5347,0.0461453,,,,
3976.4988,0.0461196,,,,
3977.4631,0.0460962,,,,
3978.4272,0.0461367,,,,
3979.3916,0.0462552,,,,
3980.3557,0.0463999,,,,
3981.3201,0.0464798,,,,
3982.2842,0.0464209,,,,
3983.2485,0.0462136,,,,
3984.2126,0.0459212,,,,
3985.1770,0.0456431,,,,
3986.1411,0.0454612,,,,
3987.1055,0.0454031,,,,
3988.0696,0.0454357,,,,
3989.0339,0.0454893,,,,
3989.9980,0.0454961,,,,
3990.9624,0.0454234,,,,
3991.9265,0.0452844,,,,
3992.8909,0.0451238,,,,
3993.8550,0.0449878,,,,
3994.8193,0.0448983,,,,
3995.7834,0.044845,,,,
3996.7478,0.0447971,,,,
3997.7119,0.0447254,,,,
3998.6763,0.0446201,,,,
3999.6404,0.0444936,,,,
4000.6047,0.0444476,,,,
,,,,,
##### Extended Information,,,,,
[Comments],,,,,
Sample name,,,,,
Comment,,,,,
User,,,,,
Division,,,,,
Company,,,,,
,,,,,
[Detailed Information],,,,,
Creation date,2/15/2019 4:01 PM,,,,
,,,,,
Data array type,Linear data array,,,,
Horizontal axis,Wavenumber [cm-1],,,,
Vertical axis,Abs,,,,
Start,399.193 cm-1,,,,
End,4000.6 cm-1,,,,
Data interval,0.964233 cm-1,,,,
Data points,3736,,,,
,,,,,
[Measurement Information],,,,,
Model Name,FT/IR-6600typeA,,,,
Serial Number,A020461790,,,,
,,,,,
Accessory,ATR PRO ONE,,,,
Accessory S/N,B084261809,,,,
Incident angle,45 deg,,,,
,,,,,
Measurement Date,2/15/2019 3:42 PM,,,,
,,,,,
Light Source,Standard,,,,
Detector,TGS,,,,
Accumulation,120,,,,
Resolution,4 cm-1,,,,
Zero Filling,On,,,,
Apodization,Cosine,,,,
Gain,Auto (8),,,,
Aperture,Auto (7.1 mm),,,,
Scanning Speed,Auto (2 mm/sec),,,,
Filter,Auto (10000 Hz),,,,