TITLE,GLUCOSA 50
DATA TYPE,INFRARED SPECTRUM
ORIGIN,JASCO
OWNER,
DATE,19/02/15
TIME,16:22:11
SPECTROMETER/DATA SYSTEM,
LOCALE,1033
RESOLUTION,
DELTAX,0.964233
XUNITS,1/CM
YUNITS,ABSORBANCE
FIRSTX,399.1927
LASTX,4000.6047
NPOINTS,3736
FIRSTY,0.02660
MAXY,1.31924
MINY,0.00100
XYDATA,
399.1927,0.0265956
400.1569,0.0275736
401.1211,0.0271673
402.0854,0.0264988
403.0496,0.0265947
404.0138,0.0278612
404.9781,0.0301058
405.9423,0.0327118
406.9065,0.0349813
407.8708,0.0364927
408.8350,0.0371921
409.7992,0.0371934
410.7635,0.0365767
411.7277,0.0353886
412.6919,0.0337623
413.6562,0.0319668
414.6204,0.0303572
415.5846,0.0293637
416.5489,0.029576
417.5131,0.0317355
418.4773,0.036174
419.4416,0.0417734
420.4058,0.0462377
421.3700,0.0481137
422.3343,0.0476138
423.2985,0.0457986
424.2627,0.0438372
425.2270,0.0426459
426.1912,0.042591
427.1554,0.0433405
428.1197,0.0440815
429.0839,0.0440154
430.0481,0.0428121
431.0124,0.0407772
431.9766,0.0386872
432.9408,0.0374199
433.9051,0.0375911
434.8693,0.0393407
435.8335,0.0423031
436.7978,0.0457597
437.7620,0.0489387
438.7262,0.0513294
439.6905,0.05286
440.6547,0.0538684
441.6189,0.0548744
442.5832,0.0562145
443.5474,0.0577345
444.5116,0.0588365
445.4759,0.0589421
446.4401,0.0579784
447.4043,0.0564565
448.3686,0.0551472
449.3328,0.0546532
450.2970,0.0551174
451.2613,0.0561637
452.2255,0.0570938
453.1897,0.0572506
454.1540,0.0563333
455.1182,0.0545101
456.0824,0.052368
457.0467,0.050762
458.0109,0.0504912
458.9751,0.0518257
459.9394,0.0542915
460.9036,0.0569986
461.8678,0.0591672
462.8321,0.0604188
463.7963,0.0608094
464.7605,0.0607271
465.7248,0.0606807
466.6890,0.0610231
467.6532,0.0617616
468.6175,0.062582
469.5817,0.0630373
470.5459,0.0627857
471.5102,0.0618212
472.4744,0.0606064
473.4386,0.0599211
474.4029,0.0604286
475.3671,0.0623085
476.3313,0.065206
477.2956,0.0684005
478.2598,0.0710654
479.2240,0.0726133
480.1883,0.0730444
481.1525,0.0730643
482.1167,0.0738019
483.0810,0.0762131
484.0452,0.0804599
485.0094,0.0856522
485.9737,0.0902587
486.9379,0.0929833
487.9021,0.0934092
488.8664,0.0919867
489.8306,0.0895977
490.7948,0.0871101
491.7591,0.0851185
492.7233,0.0839005
493.6875,0.0835374
494.6518,0.084073
495.6160,0.0855659
496.5802,0.0880018
497.5445,0.0911575
498.5087,0.0945334
499.4729,0.0974321
500.4372,0.0992125
501.4014,0.0996407
502.3656,0.0990788
503.3299,0.0982646
504.2941,0.0978251
505.2583,0.0979641
506.2226,0.0985386
507.1868,0.0993574
508.1510,0.100419
509.1153,0.101898
510.0795,0.103899
511.0437,0.10621
512.0080,0.10829
512.9722,0.109524
513.9365,0.109563
514.9007,0.108551
515.8649,0.107084
516.8292,0.105924
517.7934,0.105594
518.7576,0.106106
519.7219,0.10704
520.6861,0.107897
521.6503,0.108375
522.6146,0.108416
523.5788,0.108125
524.5430,0.107713
525.5073,0.107445
526.4715,0.107565
527.4357,0.108166
528.4000,0.109107
529.3642,0.11008
530.3284,0.110757
531.2927,0.110943
532.2569,0.110661
533.2211,0.110129
534.1854,0.109624
535.1496,0.109356
536.1138,0.10941
537.0781,0.109799
538.0423,0.110535
539.0065,0.111631
539.9708,0.113036
540.9350,0.114585
541.8992,0.11604
542.8635,0.117213
543.8277,0.118084
544.7919,0.118812
545.7562,0.119616
546.7204,0.120615
547.6846,0.121751
548.6489,0.122865
549.6131,0.123864
550.5773,0.124817
551.5416,0.125904
552.5058,0.127253
553.4700,0.128809
554.4343,0.130315
555.3985,0.131433
556.3627,0.131904
557.3270,0.131664
558.2912,0.130841
559.2554,0.129671
560.2197,0.128395
561.1839,0.127181
562.1481,0.126099
563.1124,0.125131
564.0766,0.124209
565.0408,0.12329
566.0051,0.122395
566.9693,0.121603
567.9335,0.120985
568.8978,0.120525
569.8620,0.1201
570.8262,0.119575
571.7905,0.118916
572.7547,0.11824
573.7189,0.117762
574.6832,0.117668
575.6474,0.118016
576.6116,0.118726
577.5759,0.119677
578.5401,0.120802
579.5043,0.122088
580.4686,0.123487
581.4328,0.124823
582.3970,0.125826
583.3613,0.126294
584.3255,0.12625
585.2897,0.125966
586.2540,0.125789
587.2182,0.125923
588.1824,0.126307
589.1467,0.12667
590.1109,0.126704
591.0751,0.126257
592.0394,0.125427
593.0036,0.124478
593.9678,0.123662
594.9321,0.123062
595.8963,0.122583
596.8605,0.122044
597.8248,0.1213
598.7890,0.12033
599.7532,0.119247
600.7175,0.11823
601.6817,0.117409
602.6459,0.116787
603.6102,0.116243
604.5744,0.115615
605.5386,0.114817
606.5029,0.113916
607.4671,0.113111
608.4313,0.112624
609.3956,0.112577
610.3598,0.112929
611.3240,0.11351
612.2883,0.11414
613.2525,0.114726
614.2167,0.115296
615.1810,0.115939
616.1452,0.11672
617.1094,0.117628
618.0737,0.118599
619.0379,0.119592
620.0021,0.120641
620.9664,0.121839
621.9306,0.123274
622.8948,0.124961
623.8591,0.126821
624.8233,0.128695
625.7875,0.130453
626.7518,0.131981
627.7160,0.133221
628.6802,0.13414
629.6445,0.134723
630.6087,0.134966
631.5729,0.134906
632.5372,0.134621
633.5014,0.134212
634.4656,0.133755
635.4299,0.133261
636.3941,0.132673
637.3583,0.131904
638.3226,0.130891
639.2868,0.129629
640.2510,0.128156
641.2153,0.126503
642.1795,0.124661
643.1437,0.122582
644.1080,0.12023
645.0722,0.117647
646.0364,0.114981
647.0007,0.112439
647.9649,0.11021
648.9291,0.108372
649.8934,0.106861
650.8576,0.105512
651.8218,0.104156
652.7861,0.102715
653.7503,0.101249
654.7145,0.0999245
655.6788,0.0989251
656.6430,0.0983455
657.6072,0.098141
658.5715,0.0981585
659.5357,0.0982243
660.4999,0.0982308
661.4642,0.0981646
662.4284,0.0980532
663.3926,0.0978856
664.3569,0.0975902
665.3211,0.0970775
666.2853,0.0963066
667.2496,0.0953538
668.2138,0.0944823
669.1780,0.0940762
670.1423,0.0942903
671.1065,0.0948707
672.0707,0.0954343
673.0350,0.0957299
673.9992,0.0956817
674.9634,0.0953434
675.9277,0.0948411
676.8919,0.0943222
677.8561,0.0939164
678.8204,0.0937192
679.7846,0.0937863
680.7488,0.0941176
681.7131,0.0946366
682.6773,0.0952052
683.6415,0.0956847
684.6058,0.0960002
685.5700,0.09616
686.5342,0.0962243
687.4985,0.0962574
688.4627,0.0962976
689.4269,0.0963504
690.3912,0.0964089
691.3554,0.0964699
692.3196,0.0965367
693.2839,0.0966165
694.2481,0.0967218
695.2123,0.0968761
696.1766,0.0971102
697.1408,0.0974422
698.1050,0.0978515
699.0693,0.0982683
700.0335,0.0985943
700.9977,0.0987485
701.9620,0.0987077
702.9262,0.0985143
703.8904,0.0982362
704.8547,0.0979216
705.8189,0.0975533
706.7831,0.0970575
707.7474,0.0963564
708.7116,0.0954269
709.6758,0.0943246
710.6401,0.0931557
711.6043,0.0920174
712.5685,0.0909469
713.5328,0.0899116
714.4970,0.0888442
715.4612,0.0874001
716.4255,0.0862546
717.3897,0.0851471
718.3539,0.0841692
719.3182,0.0833898
720.2824,0.0828272
721.2466,0.0824452
722.2109,0.082176
723.1751,0.0819492
724.1393,0.0817104
725.1036,0.0814221
726.0678,0.0810593
727.0320,0.0806096
727.9963,0.0800809
728.9605,0.0795084
729.9247,0.0789501
730.8890,0.0784671
731.8532,0.078096
732.8174,0.0778292
733.7817,0.0776175
734.7459,0.0773936
735.7101,0.0771049
736.6744,0.0767339
737.6386,0.0762952
738.6028,0.0758187
739.5671,0.075331
740.5313,0.07485
741.4955,0.0743892
742.4598,0.0739629
743.4240,0.0735838
744.3882,0.0732589
745.3525,0.0729896
746.3167,0.0727793
747.2809,0.0726398
748.2452,0.0725838
749.2094,0.0726069
750.1736,0.0726733
751.1379,0.0727246
752.1021,0.0727133
753.0663,0.0726409
754.0306,0.072571
754.9948,0.0726009
755.9590,0.0728106
756.9233,0.0732217
757.8875,0.0737953
758.8517,0.074466
759.8160,0.0751857
760.7802,0.0759439
761.7444,0.0767541
762.7087,0.0776197
763.6729,0.0785064
764.6371,0.0793422
765.6014,0.0800412
766.5656,0.0805357
767.5298,0.0807926
768.4941,0.0808061
769.4583,0.0805729
770.4225,0.0800679
771.3868,0.0792361
772.3510,0.0780095
773.3152,0.0763384
774.2795,0.074222
775.2437,0.0717213
776.2079,0.0689492
777.1722,0.0660463
778.1364,0.0631559
779.1006,0.0604076
780.0649,0.0579104
781.0291,0.055744
781.9933,0.0539441
782.9576,0.0524878
783.9218,0.0512918
784.8860,0.050236
785.8503,0.0492056
786.8145,0.0481336
787.7787,0.0470169
788.7430,0.0459008
789.7072,0.0448426
790.6714,0.0438787
791.6357,0.0430136
792.5999,0.0422319
793.5641,0.0415178
794.5284,0.0408647
795.4926,0.0402685
796.4568,0.0397126
797.4211,0.0391603
798.3853,0.0385644
799.3495,0.0378906
800.3138,0.0371375
801.2780,0.0363399
802.2422,0.0355524
803.2065,0.0348232
804.1707,0.034176
805.1349,0.0336076
806.0992,0.0330989
807.0634,0.0326273
808.0276,0.0321717
808.9919,0.0317111
809.9561,0.0312241
810.9203,0.0306966
811.8846,0.0301333
812.8488,0.0295619
813.8130,0.0290214
814.7773,0.0285388
815.7415,0.0281117
816.7057,0.0277099
817.6700,0.0272975
818.6342,0.026859
819.5984,0.0264093
820.5627,0.0259795
821.5269,0.0255928
822.4911,0.0252483
823.4554,0.0249291
824.4196,0.0246254
825.3839,0.0243542
826.3481,0.024159
827.3123,0.0240871
828.2766,0.0241618
829.2408,0.0243684
830.2050,0.0246607
831.1693,0.0249842
832.1335,0.0252983
833.0977,0.0255879
834.0620,0.0258602
835.0262,0.0261341
835.9904,0.0264268
836.9547,0.0267448
837.9189,0.0270788
838.8831,0.0274041
839.8474,0.0276862
840.8116,0.0278908
841.7758,0.0279915
842.7401,0.0279731
843.7043,0.0278266
844.6685,0.0275404
845.6328,0.0270973
846.5970,0.0264831
847.5612,0.0257035
848.5255,0.0247997
849.4897,0.0238481
850.4539,0.0229404
851.4182,0.0221513
852.3824,0.0215115
853.3466,0.0210001
854.3109,0.0205609
855.2751,0.0201326
856.2393,0.0196743
857.2036,0.0191741
858.1678,0.0186388
859.1320,0.0180732
860.0963,0.0174676
861.0605,0.0167999
862.0247,0.0160538
862.9890,0.0152371
863.9532,0.0143867
864.9174,0.0135544
865.8817,0.01278
866.8459,0.0120702
867.8101,0.0114002
868.7744,0.0107359
869.7386,0.0100646
870.7028,0.00941042
871.6671,0.00882526
872.6313,0.00836235
873.5955,0.00805397
874.5598,0.00791
875.5240,0.00793584
876.4882,0.00815081
877.4525,0.00858844
878.4167,0.00927533
879.3809,0.0102065
880.3452,0.01134
881.3094,0.01262
882.2736,0.0140148
883.2379,0.0155409
884.2021,0.0172572
885.1663,0.0192301
886.1306,0.0214917
887.0948,0.0240153
888.0590,0.026715
889.0233,0.0294656
889.9875,0.0321256
890.9517,0.03456
891.9160,0.036658
892.8802,0.0383499
893.8444,0.0396168
894.8087,0.0404863
895.7729,0.0410104
896.7371,0.0412355
897.7014,0.041181
898.6656,0.0408416
899.6298,0.0402112
900.5941,0.0393131
901.5583,0.0382144
902.5225,0.0370162
903.4868,0.0358263
904.4510,0.0347305
905.4152,0.0337777
906.3795,0.0329821
907.3437,0.0323351
908.3079,0.0318191
909.2722,0.0314161
910.2364,0.031111
911.2006,0.0308911
912.1649,0.030741
913.1291,0.0306372
914.0933,0.0305417
915.0576,0.0304012
916.0218,0.0301537
916.9860,0.0297404
917.9503,0.0291177
918.9145,0.028264
919.8787,0.0271781
920.8430,0.0258741
921.8072,0.0243747
922.7714,0.0227091
923.7357,0.0209131
924.6999,0.0190324
925.6641,0.0171245
926.6284,0.0152559
927.5926,0.0134931
928.5568,0.0118875
929.5211,0.010462
930.4853,0.00920949
931.4495,0.00810907
932.4138,0.00715394
933.3780,0.00637307
934.3422,0.00582854
935.3065,0.00558599
936.2707,0.00567474
937.2349,0.00606525
938.1992,0.00668111
939.1634,0.00743869
940.1276,0.00828822
941.0919,0.00922876
942.0561,0.0102898
943.0203,0.0114967
943.9846,0.0128476
944.9488,0.0143167
945.9130,0.0158767
946.8773,0.0175201
947.8415,0.0192606
948.8057,0.0211164
949.7700,0.0230939
950.7342,0.0251842
951.6984,0.027378
952.6627,0.0296808
953.6269,0.0321151
954.5911,0.0347066
955.5554,0.0374654
956.5196,0.0403813
957.4838,0.0434373
958.4481,0.0466324
959.4123,0.0499926
960.3765,0.0535625
961.3408,0.0573825
962.3050,0.0614724
963.2692,0.0658366
964.2335,0.070488
965.1977,0.0754732
966.1619,0.0808756
967.1262,0.0867926
968.0904,0.0932995
969.0546,0.100427
970.0189,0.108169
970.9831,0.116515
971.9473,0.125496
972.9116,0.135202
973.8758,0.145779
974.8400,0.157391
975.8043,0.170172
976.7685,0.184176
977.7327,0.199348
978.6970,0.215508
979.6612,0.232359
980.6254,0.249507
981.5897,0.266493
982.5539,0.282831
983.5181,0.298038
984.4824,0.311658
985.4466,0.323282
986.4108,0.332588
987.3751,0.339385
988.3393,0.343663
989.3035,0.345614
990.2678,0.345617
991.2320,0.344188
992.1962,0.341921
993.1605,0.339452
994.1247,0.337437
995.0889,0.336527
996.0532,0.33733
997.0174,0.340348
997.9816,0.345899
998.9459,0.35406
999.9101,0.36465
1000.8743,0.377253
1001.8386,0.391293
1002.8028,0.406115
1003.7670,0.421066
1004.7313,0.435569
1005.6955,0.449164
1006.6597,0.461521
1007.6240,0.472437
1008.5882,0.481807
1009.5524,0.489602
1010.5167,0.495857
1011.4809,0.50067
1012.4451,0.504208
1013.4094,0.506706
1014.3736,0.508446
1015.3378,0.509728
1016.3021,0.510825
1017.2663,0.511948
1018.2305,0.513223
1019.1948,0.514666
1020.1590,0.516175
1021.1232,0.517537
1022.0875,0.518465
1023.0517,0.51866
1024.0160,0.517883
1024.9802,0.515995
1025.9445,0.512957
1026.9087,0.508787
1027.8729,0.503517
1028.8372,0.497168
1029.8014,0.489767
1030.7656,0.48138
1031.7299,0.472125
1032.6941,0.462157
1033.6583,0.451638
1034.6226,0.440722
1035.5868,0.429557
1036.5510,0.418315
1037.5153,0.407191
1038.4795,0.396385
1039.4437,0.386058
1040.4080,0.376309
1041.3722,0.367175
1042.3364,0.358675
1043.3007,0.350841
1044.2649,0.343734
1045.2291,0.337417
1046.1934,0.331921
1047.1576,0.327219
1048.1218,0.323229
1049.0861,0.319836
1050.0503,0.316902
1051.0145,0.314278
1051.9788,0.31181
1052.9430,0.309354
1053.9072,0.30681
1054.8715,0.304153
1055.8357,0.301439
1056.7999,0.298789
1057.7642,0.296351
1058.7284,0.294278
1059.6926,0.292722
1060.6569,0.291837
1061.6211,0.291781
1062.5853,0.292702
1063.5496,0.294702
1064.5138,0.297805
1065.4780,0.301945
1066.4423,0.306966
1067.4065,0.312633
1068.3707,0.318647
1069.3350,0.324654
1070.2992,0.330264
1071.2634,0.335075
1072.2277,0.338716
1073.1919,0.340883
1074.1561,0.341365
1075.1204,0.340039
1076.0846,0.336843
1077.0488,0.331763
1078.0131,0.324828
1078.9773,0.316132
1079.9415,0.30585
1080.9058,0.294248
1081.8700,0.281657
1082.8342,0.268459
1083.7985,0.255061
1084.7627,0.241889
1085.7269,0.229378
1086.6912,0.217949
1087.6554,0.207976
1088.6196,0.199744
1089.5839,0.193427
1090.5481,0.189085
1091.5123,0.18668
1092.4766,0.186087
1093.4408,0.187098
1094.4050,0.189424
1095.3693,0.192691
1096.3335,0.196475
1097.2977,0.200351
1098.2620,0.203949
1099.2262,0.207
1100.1904,0.209339
1101.1547,0.210891
1102.1189,0.211629
1103.0831,0.211551
1104.0474,0.21066
1105.0116,0.208969
1105.9758,0.206504
1106.9401,0.203323
1107.9043,0.199519
1108.8685,0.195222
1109.8328,0.190585
1110.7970,0.185765
1111.7612,0.180891
1112.7255,0.176054
1113.6897,0.171296
1114.6539,0.166629
1115.6182,0.162053
1116.5824,0.157584
1117.5466,0.153258
1118.5109,0.149126
1119.4751,0.145223
1120.4393,0.141547
1121.4036,0.138051
1122.3678,0.134658
1123.3320,0.1313
1124.2963,0.127954
1125.2605,0.124652
1126.2247,0.12145
1127.1890,0.118392
1128.1532,0.115472
1129.1174,0.112635
1130.0817,0.109808
1131.0459,0.106937
1132.0101,0.10402
1132.9744,0.101105
1133.9386,0.0982851
1134.9028,0.0956753
1135.8671,0.0934062
1136.8313,0.0916117
1137.7955,0.090411
1138.7598,0.0898823
1139.7240,0.0900376
1140.6882,0.090812
1141.6525,0.0920735
1142.6167,0.0936494
1143.5809,0.0953526
1144.5452,0.0969994
1145.5094,0.0984166
1146.4736,0.0994474
1147.4379,0.099962
1148.4021,0.0998746
1149.3663,0.0991559
1150.3306,0.0978309
1151.2948,0.0959596
1152.2590,0.0936082
1153.2233,0.0908254
1154.1875,0.0876344
1155.1517,0.0840423
1156.1160,0.0800604
1157.0802,0.0757238
1158.0444,0.0710981
1159.0087,0.0662706
1159.9729,0.0613308
1160.9371,0.0563503
1161.9014,0.0513748
1162.8656,0.0464303
1163.8298,0.0415397
1164.7941,0.0367378
1165.7583,0.0320775
1166.7225,0.027624
1167.6868,0.0234428
1168.6510,0.0195874
1169.6152,0.0160944
1170.5795,0.0129836
1171.5437,0.0102622
1172.5079,0.00792779
1173.4722,0.00596975
1174.4364,0.00436919
1175.4006,0.00310148
1176.3649,0.00214218
1177.3291,0.00147419
1178.2933,0.00109205
1179.2576,0.001
1180.2218,0.00120402
1181.1860,0.00170268
1182.1503,0.00248264
1183.1145,0.00352188
1184.0787,0.00479825
1185.0430,0.00629737
1186.0072,0.00801457
1186.9714,0.00994943
1187.9357,0.0120961
1188.8999,0.0144347
1189.8641,0.0169283
1190.8284,0.0195256
1191.7926,0.022167
1192.7568,0.0247912
1193.7211,0.0273382
1194.6853,0.0297494
1195.6495,0.0319663
1196.6138,0.0339307
1197.5780,0.0355899
1198.5422,0.0369052
1199.5065,0.0379699
1200.4707,0.0385619
1201.4349,0.0388333
1202.3992,0.0388277
1203.3634,0.0385933
1204.3276,0.0381822
1205.2919,0.0376537
1206.2561,0.0370785
1207.2203,0.0365374
1208.1846,0.036113
1209.1488,0.0358781
1210.1130,0.0358859
1211.0773,0.0361651
1212.0415,0.0367221
1213.0057,0.0375465
1213.9700,0.0386188
1214.9342,0.0399146
1215.8984,0.0414069
1216.8627,0.0430661
1217.8269,0.0448589
1218.7911,0.046747
1219.7554,0.0486892
1220.7196,0.0506435
1221.6838,0.0525693
1222.6481,0.0544307
1223.6123,0.0561997
1224.5765,0.0578593
1225.5408,0.0594016
1226.5050,0.0608223
1227.4692,0.0621136
1228.4335,0.0632621
1229.3977,0.0642546
1230.3619,0.0650902
1231.3262,0.0657905
1232.2904,0.0664001
1233.2546,0.0669757
1234.2189,0.0675704
1235.1831,0.0682199
1236.1473,0.0689397
1237.1116,0.0697295
1238.0758,0.0705823
1239.0400,0.0714919
1240.0043,0.0724561
1240.9685,0.0734759
1241.9327,0.0745508
1242.8970,0.0756738
1243.8612,0.0768274
1244.8254,0.0779842
1245.7897,0.0791129
1246.7539,0.0801884
1247.7181,0.0811996
1248.6824,0.0821518
1249.6466,0.0830597
1250.6108,0.0839361
1251.5751,0.0847816
1252.5393,0.0855806
1253.5035,0.0863075
1254.4678,0.0869367
1255.4320,0.0874532
1256.3962,0.0878547
1257.3605,0.0881498
1258.3247,0.0883521
1259.2889,0.0884764
1260.2532,0.088537
1261.2174,0.0885462
1262.1816,0.0885135
1263.1459,0.0884443
1264.1101,0.088341
1265.0743,0.0882065
1266.0386,0.0880481
1267.0028,0.08788
1267.9670,0.0877229
1268.9313,0.0876002
1269.8955,0.087534
1270.8597,0.0875415
1271.8240,0.0876321
1272.7882,0.0878043
1273.7524,0.0880443
1274.7167,0.0883278
1275.6809,0.0886262
1276.6451,0.088916
1277.6094,0.0891873
1278.5736,0.0894454
1279.5378,0.0897032
1280.5021,0.0899677
1281.4663,0.0902307
1282.4305,0.09047
1283.3948,0.0906612
1284.3590,0.0907904
1285.3232,0.0908601
1286.2875,0.0908847
1287.2517,0.0908814
1288.2159,0.0908654
1289.1802,0.0908511
1290.1444,0.0908602
1291.1086,0.0909256
1292.0729,0.0910875
1293.0371,0.0913829
1294.0013,0.0918333
1294.9656,0.0924389
1295.9298,0.0931835
1296.8940,0.0940491
1297.8583,0.0950318
1298.8225,0.0961481
1299.7867,0.0974278
1300.7510,0.0988956
1301.7152,0.100554
1302.6794,0.102379
1303.6437,0.104331
1304.6079,0.106362
1305.5721,0.108425
1306.5364,0.110478
1307.5006,0.112482
1308.4648,0.114407
1309.4291,0.116232
1310.3933,0.117946
1311.3575,0.119542
1312.3218,0.121006
1313.2860,0.122317
1314.2502,0.123454
1315.2145,0.124402
1316.1787,0.125161
1317.1429,0.125746
1318.1072,0.126187
1319.0714,0.126527
1320.0356,0.126811
1320.9999,0.127077
1321.9641,0.127348
1322.9283,0.12763
1323.8926,0.127928
1324.8568,0.128249
1325.8210,0.128613
1326.7853,0.129048
1327.7495,0.129586
1328.7137,0.130248
1329.6780,0.131038
1330.6422,0.131935
1331.6064,0.132899
1332.5707,0.133881
1333.5349,0.134843
1334.4991,0.135772
1335.4634,0.136681
1336.4276,0.13761
1337.3918,0.138616
1338.3561,0.139748
1339.3203,0.141017
1340.2845,0.142369
1341.2488,0.143722
1342.2130,0.145031
1343.1772,0.1463
1344.1415,0.147565
1345.1057,0.148858
1346.0699,0.150196
1347.0342,0.151582
1347.9984,0.152998
1348.9626,0.154416
1349.9269,0.155792
1350.8911,0.157085
1351.8553,0.158269
1352.8196,0.159336
1353.7838,0.160294
1354.7480,0.161148
1355.7123,0.161897
1356.6765,0.162529
1357.6407,0.16303
1358.6050,0.163376
1359.5692,0.16353
1360.5334,0.163441
1361.4977,0.163086
1362.4619,0.162509
1363.4261,0.161799
1364.3904,0.161021
1365.3546,0.160171
1366.3188,0.159199
1367.2831,0.158057
1368.2473,0.156741
1369.2115,0.155291
1370.1758,0.153754
1371.1400,0.152128
1372.1042,0.150347
1373.0685,0.148342
1374.0327,0.146142
1374.9969,0.143903
1375.9612,0.141808
1376.9254,0.13993
1377.8896,0.138205
1378.8539,0.136517
1379.8181,0.134794
1380.7823,0.133055
1381.7466,0.131382
1382.7108,0.12985
1383.6750,0.128464
1384.6393,0.127158
1385.6035,0.125852
1386.5677,0.124531
1387.5320,0.123281
1388.4962,0.122208
1389.4604,0.121358
1390.4247,0.120714
1391.3889,0.120237
1392.3531,0.119896
1393.3174,0.119687
1394.2816,0.119657
1395.2458,0.119891
1396.2101,0.120459
1397.1743,0.121348
1398.1385,0.122452
1399.1028,0.123627
1400.0670,0.124757
1401.0313,0.125812
1401.9955,0.126847
1402.9597,0.127959
1403.9240,0.12923
1404.8882,0.130664
1405.8524,0.132165
1406.8167,0.133599
1407.7809,0.134889
1408.7451,0.136055
1409.7094,0.137158
1410.6736,0.138233
1411.6378,0.139254
1412.6021,0.14017
1413.5663,0.14096
1414.5305,0.141659
1415.4948,0.142331
1416.4590,0.143019
1417.4232,0.143734
1418.3875,0.144439
1419.3517,0.145032
1420.3159,0.145405
1421.2802,0.145545
1422.2444,0.145545
1423.2086,0.145512
1424.1729,0.145506
1425.1371,0.145527
1426.1013,0.145535
1427.0656,0.145471
1428.0298,0.14528
1428.9940,0.144941
1429.9583,0.144488
1430.9225,0.144011
1431.8867,0.143595
1432.8510,0.143275
1433.8152,0.143005
1434.7794,0.142675
1435.7437,0.142181
1436.7079,0.141513
1437.6721,0.140732
1438.6364,0.139895
1439.6006,0.139042
1440.5648,0.138214
1441.5291,0.137443
1442.4933,0.136737
1443.4575,0.136086
1444.4218,0.135473
1445.3860,0.134886
1446.3502,0.134327
1447.3145,0.133812
1448.2787,0.133351
1449.2429,0.132918
1450.2072,0.132468
1451.1714,0.131984
1452.1356,0.131498
1453.0999,0.131035
1454.0641,0.130532
1455.0283,0.129782
1455.9926,0.128543
1456.9568,0.126865
1457.9210,0.125117
1458.8853,0.123474
1459.8495,0.121885
1460.8137,0.120322
1461.7780,0.118721
1462.7422,0.116906
1463.7064,0.114677
1464.6707,0.112031
1465.6349,0.10926
1466.5991,0.106707
1467.5634,0.104487
1468.5276,0.10249
1469.4918,0.100464
1470.4561,0.0980853
1471.4203,0.0950819
1472.3845,0.0915332
1473.3488,0.0880032
1474.3130,0.0850266
1475.2772,0.0825943
1476.2415,0.0804159
1477.2057,0.0783016
1478.1699,0.0762069
1479.1342,0.0741474
1480.0984,0.0721443
1481.0626,0.0702131
1482.0269,0.0683715
1482.9911,0.0666448
1483.9553,0.0650532
1484.9196,0.0635821
1485.8838,0.062153
1486.8480,0.0606332
1487.8123,0.058939
1488.7765,0.0571994
1489.7407,0.0557075
1490.7050,0.0545862
1491.6692,0.0537069
1492.6334,0.052917
1493.5977,0.052126
1494.5619,0.0512523
1495.5261,0.0502161
1496.4904,0.0490273
1497.4546,0.0478495
1498.4188,0.0468616
1499.3831,0.0460752
1500.3473,0.0454231
1501.3115,0.0449126
1502.2758,0.0445959
1503.2400,0.0444509
1504.2042,0.0442842
1505.1685,0.0437457
1506.1327,0.0426682
1507.0969,0.0416308
1508.0612,0.0413141
1509.0254,0.0413308
1509.9896,0.0411666
1510.9539,0.040823
1511.9181,0.0404435
1512.8823,0.0400812
1513.8466,0.0397094
1514.8108,0.0393043
1515.7750,0.0389061
1516.7393,0.0386015
1517.7035,0.038441
1518.6677,0.038384
1519.6320,0.0383298
1520.5962,0.038205
1521.5604,0.0380263
1522.5247,0.0378765
1523.4889,0.0378346
1524.4531,0.0379321
1525.4174,0.0381386
1526.3816,0.0383687
1527.3458,0.0385295
1528.3101,0.038585
1529.2743,0.038571
1530.2385,0.0385482
1531.2028,0.0385565
1532.1670,0.0386162
1533.1312,0.0387434
1534.0955,0.0389311
1535.0597,0.0391492
1536.0239,0.0393818
1536.9882,0.0395903
1537.9524,0.0396228
1538.9166,0.0392626
1539.8809,0.0386198
1540.8451,0.0384512
1541.8093,0.0392069
1542.7736,0.0402818
1543.7378,0.0410986
1544.7020,0.0415989
1545.6663,0.0419018
1546.6305,0.0421035
1547.5947,0.0422663
1548.5590,0.0424374
1549.5232,0.0426482
1550.4874,0.042904
1551.4517,0.0431858
1552.4159,0.0434733
1553.3801,0.0437749
1554.3444,0.0441292
1555.3086,0.0445585
1556.2728,0.0450391
1557.2371,0.0456294
1558.2013,0.0466899
1559.1655,0.0482826
1560.1298,0.0494364
1561.0940,0.0496053
1562.0582,0.049241
1563.0225,0.0489044
1563.9867,0.0488634
1564.9509,0.0491366
1565.9152,0.0496195
1566.8794,0.0502039
1567.8436,0.0508654
1568.8079,0.0516487
1569.7721,0.0525328
1570.7363,0.0533764
1571.7006,0.0540652
1572.6648,0.0546173
1573.6290,0.05513
1574.5933,0.0557269
1575.5575,0.0565663
1576.5217,0.0577392
1577.4860,0.0590562
1578.4502,0.0602019
1579.4144,0.06111
1580.3787,0.0619444
1581.3429,0.0628697
1582.3071,0.0639404
1583.2714,0.0651138
1584.2356,0.0663169
1585.1998,0.0675091
1586.1641,0.0687032
1587.1283,0.0699379
1588.0925,0.0712357
1589.0568,0.0725867
1590.0210,0.0739658
1590.9852,0.0753646
1591.9495,0.0768085
1592.9137,0.078347
1593.8779,0.0800247
1594.8422,0.081851
1595.8064,0.083791
1596.7706,0.0857859
1597.7349,0.0877893
1598.6991,0.0897916
1599.6633,0.0918227
1600.6276,0.0939344
1601.5918,0.0961717
1602.5560,0.0985397
1603.5203,0.100991
1604.4845,0.103458
1605.4487,0.105912
1606.4130,0.108407
1607.3772,0.111066
1608.3414,0.113997
1609.3057,0.117168
1610.2699,0.120377
1611.2341,0.123395
1612.1984,0.126144
1613.1626,0.128744
1614.1268,0.131473
1615.0911,0.134688
1616.0553,0.138579
1617.0195,0.142779
1617.9838,0.146509
1618.9480,0.149382
1619.9122,0.151686
1620.8765,0.15397
1621.8407,0.156663
1622.8049,0.15987
1623.7692,0.163317
1624.7334,0.16656
1625.6976,0.169382
1626.6619,0.171909
1627.6261,0.174359
1628.5903,0.176772
1629.5546,0.179003
1630.5188,0.180921
1631.4830,0.182537
1632.4473,0.183946
1633.4115,0.185207
1634.3757,0.186347
1635.3400,0.187471
1636.3042,0.188662
1637.2684,0.189701
1638.2327,0.190319
1639.1969,0.190533
1640.1611,0.190528
1641.1254,0.19047
1642.0896,0.190445
1643.0538,0.190418
1644.0181,0.190186
1644.9823,0.189433
1645.9465,0.188032
1646.9108,0.186373
1647.8750,0.185076
1648.8392,0.184416
1649.8035,0.184242
1650.7677,0.184092
1651.7319,0.183217
1652.6962,0.181035
1653.6604,0.178061
1654.6246,0.175331
1655.5889,0.172975
1656.5531,0.170784
1657.5173,0.168732
1658.4816,0.166805
1659.4458,0.164867
1660.4100,0.16269
1661.3743,0.160134
1662.3385,0.157322
1663.3027,0.154581
1664.2670,0.152156
1665.2312,0.150054
1666.1954,0.148055
1667.1597,0.145794
1668.1239,0.142934
1669.0881,0.1395
1670.0524,0.136033
1671.0166,0.133129
1671.9808,0.130871
1672.9451,0.128908
1673.9093,0.126827
1674.8735,0.124383
1675.8378,0.121596
1676.8020,0.118701
1677.7662,0.115969
1678.7305,0.113569
1679.6947,0.111527
1680.6589,0.109689
1681.6232,0.107703
1682.5874,0.10519
1683.5516,0.102185
1684.5159,0.0992589
1685.4801,0.096767
1686.4443,0.0945332
1687.4086,0.0923376
1688.3728,0.0901428
1689.3370,0.0880371
1690.3013,0.08615
1691.2655,0.0845649
1692.2297,0.0832401
1693.1940,0.0819898
1694.1582,0.0805593
1695.1224,0.0787864
1696.0867,0.076773
1697.0509,0.0748882
1698.0151,0.0734738
1698.9794,0.0724702
1699.9436,0.0714378
1700.9078,0.0700135
1701.8721,0.0682217
1702.8363,0.0663353
1703.8005,0.0646007
1704.7648,0.0631215
1705.7290,0.0618931
1706.6932,0.0608687
1707.6575,0.0599843
1708.6217,0.0591658
1709.5859,0.0583543
1710.5502,0.0575286
1711.5144,0.0567032
1712.4786,0.0559096
1713.4429,0.055171
1714.4071,0.0544872
1715.3713,0.0538704
1716.3356,0.0534059
1717.2998,0.053145
1718.2640,0.0528852
1719.2283,0.0523557
1720.1925,0.0515448
1721.1567,0.0506358
1722.1210,0.0498071
1723.0852,0.0491458
1724.0494,0.048647
1725.0137,0.048237
1725.9779,0.0478158
1726.9421,0.0473177
1727.9064,0.0467593
1728.8706,0.0462326
1729.8348,0.0458439
1730.7991,0.0456382
1731.7633,0.0455612
1732.7275,0.0454853
1733.6918,0.0452563
1734.6560,0.0447283
1735.6202,0.0438671
1736.5845,0.0428185
1737.5487,0.0417909
1738.5129,0.0409159
1739.4772,0.0402171
1740.4414,0.0396505
1741.4056,0.0391419
1742.3699,0.0386124
1743.3341,0.0380142
1744.2983,0.0373604
1745.2626,0.0367164
1746.2268,0.036168
1747.1910,0.0358004
1748.1553,0.0356826
1749.1195,0.0358192
1750.0837,0.0360727
1751.0480,0.0361946
1752.0122,0.0360136
1752.9764,0.0355508
1753.9407,0.0349432
1754.9049,0.0343261
1755.8691,0.0337856
1756.8334,0.0333654
1757.7976,0.0330816
1758.7618,0.0329263
1759.7261,0.03287
1760.6903,0.0328694
1761.6545,0.0328766
1762.6188,0.0328472
1763.5830,0.0327542
1764.5472,0.0325984
1765.5115,0.0323967
1766.4757,0.0321559
1767.4399,0.0318611
1768.4042,0.0314946
1769.3684,0.0310781
1770.3326,0.0307108
1771.2969,0.0305501
1772.2611,0.030681
1773.2253,0.0309777
1774.1896,0.0311899
1775.1538,0.0311743
1776.1180,0.0309611
1777.0823,0.0306515
1778.0465,0.030328
1779.0107,0.0300451
1779.9750,0.0298525
1780.9392,0.0297926
1781.9034,0.0298692
1782.8677,0.0300286
1783.8319,0.0301742
1784.7961,0.0302054
1785.7604,0.0300698
1786.7246,0.0297953
1787.6888,0.0294727
1788.6531,0.0291975
1789.6173,0.0290209
1790.5815,0.0289473
1791.5458,0.0289588
1792.5100,0.0289989
1793.4742,0.0289485
1794.4385,0.0287198
1795.4027,0.0283623
1796.3669,0.0280166
1797.3312,0.0278034
1798.2954,0.0277689
1799.2596,0.0278882
1800.2239,0.0280865
1801.1881,0.0282663
1802.1523,0.0283465
1803.1166,0.0283019
1804.0808,0.028165
1805.0450,0.0279923
1806.0093,0.0278302
1806.9735,0.0277032
1807.9377,0.0276212
1808.9020,0.0275923
1809.8662,0.0276225
1810.8304,0.0276995
1811.7947,0.0277835
1812.7589,0.0278288
1813.7231,0.0278184
1814.6874,0.0277697
1815.6516,0.0277165
1816.6158,0.0276885
1817.5801,0.0277018
1818.5443,0.0277561
1819.5085,0.027841
1820.4728,0.0279459
1821.4370,0.02806
1822.4012,0.0281627
1823.3655,0.0282202
1824.3297,0.0281989
1825.2939,0.0280861
1826.2582,0.0279063
1827.2224,0.0277243
1828.1866,0.0276298
1829.1509,0.0276985
1830.1151,0.0279293
1831.0793,0.0282135
1832.0436,0.0284132
1833.0078,0.0284742
1833.9720,0.0284403
1834.9363,0.0283867
1835.9005,0.0283646
1836.8647,0.0283856
1837.8290,0.0284326
1838.7932,0.0284874
1839.7574,0.0285562
1840.7217,0.028661
1841.6859,0.0288129
1842.6501,0.0290104
1843.6144,0.0292567
1844.5786,0.0295362
1845.5428,0.0297716
1846.5071,0.0298709
1847.4713,0.0298156
1848.4355,0.0296581
1849.3998,0.0294637
1850.3640,0.0292813
1851.3282,0.0291493
1852.2925,0.029102
1853.2567,0.0291583
1854.2209,0.0293041
1855.1852,0.0294908
1856.1494,0.0296581
1857.1136,0.0297671
1858.0779,0.0298217
1859.0421,0.0298602
1860.0063,0.0299224
1860.9706,0.0300174
1861.9348,0.0301186
1862.8990,0.0301884
1863.8633,0.0302068
1864.8275,0.0301811
1865.7917,0.0301442
1866.7560,0.0301595
1867.7202,0.0303121
1868.6844,0.0306319
1869.6487,0.0310102
1870.6129,0.0312702
1871.5771,0.0313332
1872.5414,0.0312639
1873.5056,0.0311895
1874.4698,0.0312115
1875.4341,0.031364
1876.3983,0.0316053
1877.3625,0.031843
1878.3268,0.0319858
1879.2910,0.0319976
1880.2552,0.0319169
1881.2195,0.0318327
1882.1837,0.0318347
1883.1479,0.0319662
1884.1122,0.0322067
1885.0764,0.0324928
1886.0406,0.0327582
1887.0049,0.0329665
1887.9691,0.0331239
1888.9333,0.0332675
1889.8976,0.0334293
1890.8618,0.033606
1891.8260,0.0337627
1892.7903,0.0338618
1893.7545,0.0338857
1894.7188,0.0338453
1895.6830,0.0337808
1896.6472,0.0337495
1897.6115,0.0338009
1898.5757,0.0339545
1899.5399,0.0341931
1900.5042,0.0344684
1901.4684,0.0347184
1902.4326,0.0348917
1903.3969,0.03497
1904.3611,0.0349733
1905.3253,0.034944
1906.2896,0.0349213
1907.2538,0.0349259
1908.2180,0.0349612
1909.1823,0.0350231
1910.1465,0.0351067
1911.1107,0.0352079
1912.0750,0.0353241
1913.0392,0.0354556
1914.0034,0.035599
1914.9677,0.0357391
1915.9319,0.0358484
1916.8961,0.0358966
1917.8604,0.0358615
1918.8246,0.035741
1919.7888,0.0355678
1920.7531,0.035415
1921.7173,0.0353762
1922.6815,0.0355201
1923.6458,0.035844
1924.6100,0.0362634
1925.5742,0.0366593
1926.5385,0.0369508
1927.5027,0.0371321
1928.4669,0.0372546
1929.4312,0.037387
1930.3954,0.0375792
1931.3596,0.0378442
1932.3239,0.0381618
1933.2881,0.0384923
1934.2523,0.0387886
1935.2166,0.0390056
1936.1808,0.0391187
1937.1450,0.0391452
1938.1093,0.0391525
1939.0735,0.0392344
1940.0377,0.0394629
1941.0020,0.0398362
1941.9662,0.0402509
1942.9304,0.0405378
1943.8947,0.0405643
1944.8589,0.0403347
1945.8231,0.0399939
1946.7874,0.0397349
1947.7516,0.0396913
1948.7158,0.0398801
1949.6801,0.0402158
1950.6443,0.0405752
1951.6085,0.0408688
1952.5728,0.0410679
1953.5370,0.0411781
1954.5012,0.0411995
1955.4655,0.0411256
1956.4297,0.0409929
1957.3939,0.0409327
1958.3582,0.0411503
1959.3224,0.0418026
1960.2866,0.0428387
1961.2509,0.0439428
1962.2151,0.044678
1963.1793,0.0447521
1964.1436,0.0442112
1965.1078,0.0434199
1966.0720,0.0428344
1967.0363,0.0426979
1968.0005,0.0428788
1968.9647,0.043013
1969.9290,0.0428357
1970.8932,0.0423985
1971.8574,0.0420071
1972.8217,0.0419757
1973.7859,0.0423924
1974.7501,0.0430536
1975.7144,0.0436021
1976.6786,0.0437773
1977.6428,0.0435801
1978.6071,0.0432313
1979.5713,0.0429911
1980.5355,0.0430179
1981.4998,0.0433477
1982.4640,0.0439395
1983.4282,0.0447034
1984.3925,0.0455024
1985.3567,0.0461634
1986.3209,0.0465323
1987.2852,0.0465512
1988.2494,0.046305
1989.2136,0.0459968
1990.1779,0.0458587
1991.1421,0.0460402
1992.1063,0.0465334
1993.0706,0.0471944
1994.0348,0.0478484
1994.9990,0.0483954
1995.9633,0.048835
1996.9275,0.0492134
1997.8917,0.0495455
1998.8560,0.0497677
1999.8202,0.0497554
2000.7844,0.0494037
2001.7487,0.048726
2002.7129,0.0479008
2003.6771,0.0472245
2004.6414,0.0469799
2005.6056,0.0472772
2006.5698,0.0479658
2007.5341,0.0487073
2008.4983,0.04919
2009.4625,0.0493269
2010.4268,0.0492706
2011.3910,0.0492414
2012.3552,0.0493231
2013.3195,0.0493921
2014.2837,0.0492287
2015.2479,0.048731
2016.2122,0.0480739
2017.1764,0.0476607
2018.1406,0.0478554
2019.1049,0.048687
2020.0691,0.0497789
2021.0333,0.0505669
2021.9976,0.0506471
2022.9618,0.0500276
2023.9260,0.049138
2024.8903,0.048587
2025.8545,0.0488058
2026.8187,0.0497973
2027.7830,0.0511508
2028.7472,0.0522996
2029.7114,0.0528465
2030.6757,0.0527564
2031.6399,0.0523129
2032.6041,0.0518938
2033.5684,0.0517242
2034.5326,0.051783
2035.4968,0.0519107
2036.4611,0.0520135
2037.4253,0.0521751
2038.3895,0.0525923
2039.3538,0.0533856
2040.3180,0.0544366
2041.2822,0.0553868
2042.2465,0.0558334
2043.2107,0.0555988
2044.1749,0.0548687
2045.1392,0.0540971
2046.1034,0.0537413
2047.0676,0.0539944
2048.0320,0.0546866
2048.9961,0.0554364
2049.9604,0.0559399
2050.9246,0.0561633
2051.8889,0.0563142
2052.8530,0.0566664
2053.8174,0.0573793
2054.7815,0.0584085
2055.7458,0.0595322
2056.7100,0.0604733
2057.6743,0.0610422
2058.6384,0.061218
2059.6028,0.0611348
2060.5669,0.0609964
2061.5313,0.0609752
2062.4954,0.0611404
2063.4597,0.0614416
2064.4238,0.0617516
2065.3882,0.0619483
2066.3523,0.0619898
2067.3167,0.0619359
2068.2808,0.0619032
2069.2451,0.0619859
2070.2092,0.0621972
2071.1736,0.0624641
2072.1377,0.0626783
2073.1021,0.0627641
2074.0662,0.062724
2075.0305,0.0626322
2075.9946,0.0625881
2076.9590,0.0626635
2077.9231,0.0628745
2078.8875,0.0631856
2079.8516,0.0635354
2080.8159,0.0638643
2081.7800,0.0641317
2082.7444,0.0643221
2083.7085,0.0644439
2084.6729,0.0645267
2085.6370,0.0646147
2086.6013,0.064756
2087.5654,0.0649847
2088.5298,0.065303
2089.4939,0.0656705
2090.4583,0.0660131
2091.4224,0.0662535
2092.3867,0.0663518
2093.3508,0.0663361
2094.3152,0.0663022
2095.2793,0.0663741
2096.2437,0.0666372
2097.2078,0.0670824
2098.1721,0.0675984
2099.1362,0.0680242
2100.1006,0.0682296
2101.0647,0.0681949
2102.0291,0.0680045
2102.9932,0.0678191
2103.9575,0.0677923
2104.9216,0.0679954
2105.8860,0.068385
2106.8501,0.0688309
2107.8145,0.0691892
2108.7786,0.0693804
2109.7429,0.0694283
2110.7070,0.0694366
2111.6714,0.069519
2112.6355,0.0697255
2113.5999,0.0700107
2114.5640,0.0702615
2115.5283,0.0703662
2116.4924,0.0702796
2117.4568,0.0700483
2118.4209,0.0697858
2119.3853,0.0696185
2120.3494,0.0696326
2121.3137,0.0698471
2122.2778,0.0702157
2123.2422,0.0706489
2124.2063,0.0710443
2125.1707,0.0713154
2126.1348,0.0714173
2127.0991,0.0713623
2128.0632,0.0712186
2129.0276,0.0710872
2129.9917,0.071062
2130.9561,0.0711893
2131.9202,0.0714448
2132.8845,0.0717397
2133.8486,0.0719589
2134.8130,0.0720156
2135.7771,0.0718982
2136.7415,0.0716772
2137.7056,0.0714632
2138.6699,0.071336
2139.6340,0.0712874
2140.5984,0.0712163
2141.5625,0.0709867
2142.5269,0.0705228
2143.4910,0.0698838
2144.4553,0.0692623
2145.4194,0.0688917
2146.3838,0.068913
2147.3479,0.0692921
2148.3123,0.0698521
2149.2764,0.0704025
2150.2407,0.0708683
2151.2048,0.071316
2152.1692,0.0718601
2153.1333,0.0725251
2154.0977,0.0731768
2155.0618,0.0735798
2156.0261,0.0735509
2156.9902,0.0731168
2157.9546,0.0725535
2158.9187,0.0722242
2159.8831,0.0722996
2160.8472,0.0726257
2161.8115,0.0728767
2162.7756,0.0728044
2163.7400,0.0723682
2164.7041,0.0717134
2165.6685,0.0710723
2166.6326,0.0706513
2167.5969,0.0705459
2168.5610,0.0707118
2169.5254,0.0709983
2170.4895,0.0712266
2171.4539,0.0712812
2172.4180,0.0711764
2173.3823,0.0710575
2174.3464,0.0711224
2175.3108,0.0714959
2176.2749,0.0721321
2177.2393,0.0728185
2178.2034,0.0732853
2179.1677,0.0733496
2180.1318,0.0730058
2181.0962,0.0724153
2182.0603,0.0718081
2183.0247,0.0713567
2183.9888,0.0710986
2184.9531,0.0709487
2185.9172,0.0707849
2186.8816,0.0705428
2187.8457,0.0702616
2188.8101,0.0700587
2189.7742,0.070053
2190.7385,0.0702811
2191.7026,0.0706606
2192.6670,0.071024
2193.6311,0.0712073
2194.5955,0.0711403
2195.5596,0.0708822
2196.5239,0.0705796
2197.4880,0.0703738
2198.4524,0.0703189
2199.4165,0.0703646
2200.3809,0.0704126
2201.3450,0.0704048
2202.3093,0.0703805
2203.2734,0.0704588
2204.2378,0.0707593
2205.2019,0.0713128
2206.1663,0.0720237
2207.1304,0.0727075
2208.0947,0.0731764
2209.0588,0.0733198
2210.0232,0.0731348
2210.9873,0.0727028
2211.9517,0.0721408
2212.9158,0.0715651
2213.8801,0.0710795
2214.8442,0.0707734
2215.8086,0.0707053
2216.7727,0.0708708
2217.7371,0.0711789
2218.7012,0.0714704
2219.6655,0.0715846
2220.6296,0.0714412
2221.5940,0.0710859
2222.5581,0.070668
2223.5225,0.0703648
2224.4866,0.0702986
2225.4509,0.0704936
2226.4150,0.0708847
2227.3794,0.0713593
2228.3435,0.071799
2229.3079,0.0721061
2230.2720,0.0722157
2231.2363,0.0721052
2232.2004,0.071805
2233.1648,0.0713997
2234.1289,0.0710094
2235.0933,0.0707519
2236.0574,0.070701
2237.0217,0.0708613
2237.9858,0.0711702
2238.9502,0.0715237
2239.9143,0.0718139
2240.8787,0.0719628
2241.8428,0.0719465
2242.8071,0.0718008
2243.7712,0.0716076
2244.7356,0.0714624
2245.6997,0.0714327
2246.6641,0.0715255
2247.6282,0.0716811
2248.5925,0.0718028
2249.5566,0.0718064
2250.5210,0.0716651
2251.4851,0.0714228
2252.4495,0.0711672
2253.4136,0.0709815
2254.3779,0.070901
2255.3420,0.070905
2256.3064,0.0709451
2257.2705,0.0709882
2258.2349,0.071041
2259.1990,0.0711362
2260.1633,0.0712927
2261.1274,0.0714818
2262.0918,0.071627
2263.0559,0.071645
2264.0203,0.0715022
2264.9844,0.0712502
2265.9487,0.0710092
2266.9128,0.0709072
2267.8772,0.071009
2268.8413,0.0712817
2269.8057,0.0716153
2270.7698,0.0718854
2271.7341,0.0720168
2272.6982,0.0720134
2273.6626,0.0719413
2274.6267,0.0718827
2275.5911,0.0718903
2276.5552,0.0719672
2277.5195,0.0720775
2278.4836,0.0721741
2279.4480,0.0722252
2280.4121,0.0722282
2281.3765,0.0722071
2282.3406,0.0721986
2283.3049,0.0722343
2284.2690,0.0723251
2285.2334,0.0724551
2286.1975,0.0725885
2287.1619,0.072688
2288.1260,0.0727373
2289.0903,0.0727533
2290.0544,0.0727778
2291.0188,0.0728514
2291.9829,0.0729847
2292.9473,0.0731466
2293.9114,0.0732805
2294.8757,0.0733406
2295.8398,0.0733249
2296.8042,0.0732844
2297.7683,0.0732973
2298.7327,0.0734263
2299.6968,0.0736818
2300.6611,0.0740158
2301.6252,0.074348
2302.5896,0.0746069
2303.5537,0.0747606
2304.5181,0.0748217
2305.4822,0.07483
2306.4465,0.0748266
2307.4106,0.0748385
2308.3750,0.0748764
2309.3391,0.0749418
2310.3035,0.0750344
2311.2676,0.0751499
2312.2319,0.0752756
2313.1960,0.0753892
2314.1604,0.0754662
2315.1245,0.0754934
2316.0889,0.0754782
2317.0530,0.0754479
2318.0173,0.07544
2318.9814,0.0754862
2319.9458,0.0755967
2320.9099,0.0757525
2321.8743,0.0759122
2322.8384,0.0760339
2323.8027,0.0760973
2324.7668,0.0761107
2325.7312,0.076101
2326.6953,0.0760974
2327.6597,0.0761199
2328.6238,0.0761724
2329.5881,0.0762435
2330.5522,0.0763119
2331.5166,0.076355
2332.4807,0.0763569
2333.4451,0.0763126
2334.4092,0.0762309
2335.3735,0.0761363
2336.3376,0.0760673
2337.3020,0.0760662
2338.2661,0.0761611
2339.2305,0.076352
2340.1946,0.0766151
2341.1589,0.0769228
2342.1230,0.077259
2343.0874,0.0776121
2344.0515,0.0779529
2345.0159,0.0782294
2345.9800,0.0783924
2346.9443,0.0784237
2347.9084,0.0783362
2348.8728,0.0781568
2349.8369,0.0779157
2350.8013,0.0776466
2351.7654,0.0773969
2352.7297,0.077238
2353.6938,0.0772575
2354.6582,0.0775209
2355.6223,0.0780182
2356.5867,0.0786402
2357.5508,0.0792099
2358.5151,0.0795603
2359.4792,0.0796243
2360.4436,0.0794796
2361.4077,0.0793007
2362.3721,0.0792455
2363.3362,0.0793598
2364.3005,0.0795636
2365.2646,0.0797188
2366.2290,0.0797286
2367.1931,0.0795995
2368.1575,0.0794328
2369.1216,0.0793603
2370.0859,0.0794684
2371.0500,0.0797542
2372.0144,0.0801318
2372.9785,0.0804789
2373.9429,0.0806946
2374.9070,0.08074
2375.8713,0.0806445
2376.8354,0.0804813
2377.7998,0.0803281
2378.7639,0.0802334
2379.7283,0.0802036
2380.6924,0.0802114
2381.6567,0.0802153
2382.6208,0.0801798
2383.5852,0.0800871
2384.5493,0.0799414
2385.5137,0.0797657
2386.4778,0.0795965
2387.4421,0.0794734
2388.4063,0.0794278
2389.3706,0.0794699
2390.3347,0.0795827
2391.2991,0.0797256
2392.2632,0.0798501
2393.2275,0.0799207
2394.1917,0.0799309
2395.1560,0.0799066
2396.1201,0.0798942
2397.0845,0.0799388
2398.0486,0.0800642
2399.0129,0.0802616
2399.9771,0.0804939
2400.9414,0.0807104
2401.9055,0.0808665
2402.8699,0.0809404
2403.8340,0.0809398
2404.7983,0.0808993
2405.7625,0.0808684
2406.7268,0.0808945
2407.6909,0.0810067
2408.6553,0.0812064
2409.6194,0.0814679
2410.5837,0.0817521
2411.5479,0.0820226
2412.5122,0.08226
2413.4763,0.0824634
2414.4407,0.0826419
2415.4048,0.0828029
2416.3691,0.0829471
2417.3333,0.0830735
2418.2976,0.0831894
2419.2617,0.0833137
2420.2261,0.0834681
2421.1902,0.0836622
2422.1545,0.0838851
2423.1187,0.084111
2424.0830,0.0843187
2425.0471,0.0845067
2426.0115,0.0846943
2426.9756,0.0849054
2427.9399,0.0851491
2428.9041,0.0854116
2429.8684,0.0856669
2430.8325,0.0858966
2431.7969,0.0861045
2432.7610,0.0863142
2433.7253,0.0865524
2434.6895,0.0868296
2435.6538,0.0871307
2436.6179,0.0874194
2437.5823,0.0876557
2438.5464,0.0878152
2439.5107,0.0879056
2440.4749,0.0879689
2441.4392,0.0880685
2442.4033,0.0882616
2443.3677,0.0885678
2444.3318,0.0889534
2445.2961,0.0893425
2446.2603,0.0896553
2447.2246,0.0898529
2448.1887,0.0899622
2449.1531,0.0900621
2450.1172,0.0902383
2451.0815,0.0905331
2452.0457,0.0909235
2453.0100,0.0913378
2453.9741,0.091701
2454.9385,0.091977
2455.9026,0.0921816
2456.8669,0.0923618
2457.8311,0.0925601
2458.7954,0.0927889
2459.7595,0.0930324
2460.7239,0.0932686
2461.6880,0.093493
2462.6523,0.0937234
2463.6165,0.0939824
2464.5808,0.0942744
2465.5449,0.094576
2466.5093,0.0948513
2467.4734,0.0950812
2468.4377,0.0952828
2469.4019,0.0955017
2470.3662,0.0957794
2471.3303,0.0961176
2472.2947,0.0964697
2473.2588,0.0967669
2474.2231,0.0969657
2475.1873,0.0970816
2476.1516,0.0971847
2477.1157,0.0973553
2478.0801,0.0976307
2479.0442,0.0979784
2480.0085,0.0983167
2480.9727,0.0985677
2481.9370,0.0987076
2482.9011,0.0987802
2483.8655,0.0988653
2484.8296,0.099027
2485.7939,0.0992766
2486.7581,0.0995743
2487.7224,0.0998634
2488.6865,0.100109
2489.6509,0.100314
2490.6150,0.100503
2491.5793,0.100697
2492.5435,0.100896
2493.5078,0.101081
2494.4719,0.101236
2495.4363,0.101364
2496.4004,0.101485
2497.3647,0.101622
2498.3289,0.101784
2499.2932,0.10197
2500.2573,0.102171
2501.2217,0.102386
2502.1858,0.102618
2503.1501,0.102858
2504.1143,0.103084
2505.0786,0.103262
2506.0427,0.103366
2507.0071,0.103401
2507.9712,0.103401
2508.9355,0.103421
2509.8997,0.103503
2510.8640,0.10366
2511.8281,0.10388
2512.7925,0.104134
2513.7566,0.104404
2514.7209,0.104681
2515.6851,0.104957
2516.6494,0.105213
2517.6135,0.105421
2518.5779,0.105558
2519.5420,0.105631
2520.5063,0.105685
2521.4705,0.105786
2522.4348,0.105992
2523.3989,0.106316
2524.3633,0.10672
2525.3274,0.107129
2526.2917,0.107468
2527.2559,0.107696
2528.2202,0.107825
2529.1843,0.107906
2530.1487,0.108004
2531.1128,0.108161
2532.0771,0.108375
2533.0413,0.108604
2534.0056,0.108789
2534.9697,0.108891
2535.9341,0.108921
2536.8982,0.108934
2537.8625,0.108999
2538.8267,0.109164
2539.7910,0.109426
2540.7551,0.109742
2541.7195,0.110049
2542.6836,0.110305
2543.6479,0.110502
2544.6121,0.110659
2545.5764,0.110802
2546.5405,0.110957
2547.5049,0.111138
2548.4690,0.111358
2549.4333,0.111626
2550.3975,0.111939
2551.3618,0.112274
2552.3259,0.112596
2553.2903,0.112868
2554.2544,0.113076
2555.2188,0.113233
2556.1829,0.113371
2557.1472,0.113519
2558.1113,0.113691
2559.0757,0.113878
2560.0398,0.114063
2561.0042,0.11424
2561.9683,0.114418
2562.9326,0.114623
2563.8967,0.114875
2564.8611,0.11517
2565.8252,0.115479
2566.7896,0.115755
2567.7537,0.115958
2568.7180,0.116082
2569.6821,0.116162
2570.6465,0.116255
2571.6106,0.116414
2572.5750,0.116656
2573.5391,0.116963
2574.5034,0.117287
2575.4675,0.117585
2576.4319,0.117837
2577.3960,0.118048
2578.3604,0.118237
2579.3245,0.118429
2580.2888,0.118641
2581.2529,0.118881
2582.2173,0.119155
2583.1814,0.119456
2584.1458,0.119769
2585.1099,0.120077
2586.0742,0.120368
2587.0383,0.120651
2588.0027,0.12095
2588.9668,0.121292
2589.9312,0.121683
2590.8953,0.122097
2591.8596,0.122488
2592.8237,0.122809
2593.7881,0.123044
2594.7522,0.123211
2595.7166,0.123351
2596.6807,0.123513
2597.6450,0.123731
2598.6091,0.124024
2599.5735,0.124394
2600.5376,0.124832
2601.5020,0.125317
2602.4661,0.125824
2603.4304,0.126324
2604.3945,0.1268
2605.3589,0.12725
2606.3230,0.127685
2607.2874,0.128125
2608.2515,0.128579
2609.2158,0.129049
2610.1799,0.129524
2611.1443,0.129995
2612.1084,0.130456
2613.0728,0.130906
2614.0369,0.131354
2615.0012,0.131811
2615.9653,0.132294
2616.9297,0.132811
2617.8938,0.133361
2618.8582,0.133922
2619.8223,0.134465
2620.7866,0.134966
2621.7507,0.135429
2622.7151,0.135887
2623.6792,0.136384
2624.6436,0.136952
2625.6077,0.137589
2626.5720,0.138261
2627.5361,0.13892
2628.5005,0.139539
2629.4646,0.140117
2630.4290,0.140683
2631.3931,0.141269
2632.3574,0.141891
2633.3215,0.142543
2634.2859,0.143203
2635.2500,0.143855
2636.2144,0.144493
2637.1785,0.14513
2638.1428,0.145783
2639.1069,0.146459
2640.0713,0.147156
2641.0354,0.147862
2641.9998,0.148566
2642.9639,0.149268
2643.9282,0.149975
2644.8923,0.150702
2645.8567,0.151455
2646.8208,0.152235
2647.7852,0.153032
2648.7493,0.153832
2649.7136,0.15462
2650.6777,0.155381
2651.6421,0.156113
2652.6062,0.156822
2653.5706,0.157532
2654.5347,0.158273
2655.4990,0.159069
2656.4631,0.159919
2657.4275,0.160796
2658.3916,0.161662
2659.3560,0.162486
2660.3201,0.163268
2661.2844,0.164032
2662.2485,0.164809
2663.2129,0.165614
2664.1770,0.166433
2665.1414,0.167232
2666.1055,0.167984
2667.0698,0.168684
2668.0339,0.169358
2668.9983,0.170042
2669.9624,0.170764
2670.9268,0.171529
2671.8909,0.17232
2672.8552,0.17311
2673.8193,0.17388
2674.7837,0.174625
2675.7478,0.17535
2676.7122,0.176069
2677.6763,0.176787
2678.6406,0.177506
2679.6047,0.178218
2680.5691,0.178918
2681.5332,0.179603
2682.4976,0.180279
2683.4617,0.180953
2684.4260,0.181628
2685.3901,0.182303
2686.3545,0.182971
2687.3186,0.183627
2688.2830,0.184272
2689.2471,0.184911
2690.2114,0.185553
2691.1755,0.186205
2692.1399,0.18687
2693.1040,0.187546
2694.0684,0.188226
2695.0325,0.188898
2695.9968,0.189543
2696.9609,0.190146
2697.9253,0.190693
2698.8894,0.191187
2699.8538,0.191652
2700.8179,0.192118
2701.7822,0.192617
2702.7463,0.193162
2703.7107,0.193748
2704.6748,0.194352
2705.6392,0.194951
2706.6033,0.195532
2707.5676,0.196092
2708.5317,0.19663
2709.4961,0.197145
2710.4602,0.197627
2711.4246,0.198069
2712.3887,0.198473
2713.3530,0.19885
2714.3171,0.199223
2715.2815,0.199614
2716.2456,0.200035
2717.2100,0.200484
2718.1741,0.200953
2719.1384,0.201428
2720.1025,0.201898
2721.0669,0.20236
2722.0310,0.202813
2722.9954,0.203254
2723.9595,0.203683
2724.9238,0.204092
2725.8879,0.204479
2726.8523,0.204838
2727.8164,0.205175
2728.7808,0.205501
2729.7449,0.205835
2730.7092,0.206199
2731.6733,0.206613
2732.6377,0.207079
2733.6018,0.207584
2734.5662,0.208104
2735.5303,0.208607
2736.4946,0.209073
2737.4587,0.209493
2738.4231,0.209874
2739.3872,0.210235
2740.3516,0.2106
2741.3157,0.210991
2742.2800,0.211428
2743.2441,0.211919
2744.2085,0.212463
2745.1726,0.213047
2746.1370,0.213647
2747.1011,0.214238
2748.0654,0.214805
2749.0295,0.215345
2749.9939,0.215874
2750.9580,0.216412
2751.9224,0.216975
2752.8865,0.217565
2753.8508,0.218174
2754.8149,0.218788
2755.7793,0.219401
2756.7434,0.220021
2757.7078,0.220667
2758.6719,0.221359
2759.6362,0.222108
2760.6003,0.222907
2761.5647,0.223736
2762.5288,0.224567
2763.4932,0.225378
2764.4573,0.226166
2765.4216,0.22695
2766.3857,0.22776
2767.3501,0.228625
2768.3142,0.229553
2769.2786,0.230522
2770.2427,0.231489
2771.2070,0.23241
2772.1711,0.233265
2773.1355,0.234073
2774.0996,0.234884
2775.0640,0.235753
2776.0281,0.236714
2776.9924,0.237761
2777.9565,0.238854
2778.9209,0.23994
2779.8850,0.240979
2780.8494,0.241966
2781.8135,0.242925
2782.7778,0.243896
2783.7419,0.244914
2784.7063,0.245991
2785.6704,0.247119
2786.6348,0.24827
2787.5989,0.249412
2788.5632,0.250524
2789.5273,0.251602
2790.4917,0.252664
2791.4558,0.253738
2792.4202,0.25485
2793.3843,0.256009
2794.3486,0.257198
2795.3127,0.258389
2796.2771,0.259558
2797.2412,0.260703
2798.2056,0.261846
2799.1697,0.263019
2800.1340,0.264245
2801.0981,0.265525
2802.0625,0.266841
2803.0266,0.268169
2803.9910,0.269498
2804.9551,0.27083
2805.9194,0.272175
2806.8835,0.27354
2807.8479,0.274925
2808.8120,0.276325
2809.7764,0.277742
2810.7405,0.27918
2811.7048,0.280641
2812.6689,0.282117
2813.6333,0.283593
2814.5974,0.285059
2815.5618,0.286523
2816.5259,0.288013
2817.4902,0.289562
2818.4543,0.291182
2819.4187,0.292863
2820.3828,0.294571
2821.3472,0.296275
2822.3113,0.29797
2823.2756,0.299674
2824.2397,0.301421
2825.2041,0.303234
2826.1682,0.30511
2827.1326,0.307023
2828.0967,0.308946
2829.0610,0.310866
2830.0251,0.312796
2830.9895,0.314759
2831.9536,0.316774
2832.9180,0.318838
2833.8821,0.320928
2834.8464,0.323019
2835.8105,0.325105
2836.7749,0.327207
2837.7390,0.329368
2838.7034,0.331621
2839.6675,0.333978
2840.6318,0.336417
2841.5959,0.338895
2842.5603,0.341369
2843.5244,0.343817
2844.4888,0.346239
2845.4529,0.348652
2846.4172,0.351076
2847.3813,0.353522
2848.3457,0.355989
2849.3098,0.358469
2850.2742,0.360949
2851.2383,0.363414
2852.2026,0.365853
2853.1667,0.368256
2854.1311,0.37062
2855.0952,0.372948
2856.0596,0.375244
2857.0237,0.377512
2857.9880,0.379749
2858.9521,0.381948
2859.9165,0.384105
2860.8806,0.386216
2861.8450,0.388286
2862.8091,0.390317
2863.7734,0.392305
2864.7375,0.394244
2865.7019,0.396125
2866.6660,0.39795
2867.6304,0.399733
2868.5945,0.401496
2869.5588,0.403257
2870.5229,0.405016
2871.4873,0.406756
2872.4514,0.408453
2873.4158,0.410085
2874.3799,0.411648
2875.3442,0.413152
2876.3083,0.414612
2877.2727,0.416044
2878.2368,0.417456
2879.2012,0.418847
2880.1653,0.420209
2881.1296,0.421528
2882.0938,0.422783
2883.0581,0.423947
2884.0222,0.425001
2884.9866,0.425939
2885.9507,0.42678
2886.9150,0.427559
2887.8792,0.428305
2888.8435,0.429028
2889.8076,0.429708
2890.7720,0.430309
2891.7361,0.430801
2892.7004,0.431181
2893.6646,0.43148
2894.6289,0.431745
2895.5930,0.432019
2896.5574,0.432325
2897.5215,0.43266
2898.4858,0.433015
2899.4500,0.433387
2900.4143,0.433787
2901.3784,0.434227
2902.3428,0.434712
2903.3069,0.435233
2904.2712,0.435777
2905.2354,0.436342
2906.1997,0.436941
2907.1638,0.437595
2908.1282,0.438312
2909.0923,0.43907
2910.0566,0.439822
2911.0208,0.44052
2911.9851,0.441143
2912.9492,0.441712
2913.9136,0.442272
2914.8777,0.442863
2915.8420,0.443494
2916.8062,0.444136
2917.7705,0.444744
2918.7346,0.445281
2919.6990,0.445735
2920.6631,0.44611
2921.6274,0.446408
2922.5916,0.446614
2923.5559,0.4467
2924.5200,0.44664
2925.4844,0.446427
2926.4485,0.446079
2927.4128,0.445629
2928.3770,0.445102
2929.3413,0.444499
2930.3054,0.443797
2931.2698,0.442959
2932.2339,0.44195
2933.1982,0.440755
2934.1624,0.439383
2935.1267,0.437864
2936.0908,0.436233
2937.0552,0.434514
2938.0193,0.432713
2938.9836,0.430817
2939.9478,0.428799
2940.9121,0.426643
2941.8762,0.424349
2942.8406,0.421943
2943.8047,0.419463
2944.7690,0.416957
2945.7332,0.414461
2946.6975,0.411997
2947.6616,0.409574
2948.6260,0.407186
2949.5901,0.404829
2950.5544,0.402501
2951.5186,0.40021
2952.4829,0.397971
2953.4470,0.395806
2954.4114,0.393739
2955.3755,0.391793
2956.3398,0.389993
2957.3040,0.388362
2958.2683,0.386917
2959.2324,0.385657
2960.1968,0.384561
2961.1609,0.383585
2962.1252,0.382677
2963.0894,0.381806
2964.0537,0.380971
2965.0178,0.380209
2965.9822,0.379566
2966.9463,0.379079
2967.9106,0.378749
2968.8748,0.378541
2969.8391,0.378403
2970.8032,0.378289
2971.7676,0.378179
2972.7317,0.378077
2973.6960,0.378006
2974.6602,0.377989
2975.6245,0.378039
2976.5886,0.378154
2977.5530,0.378329
2978.5171,0.378555
2979.4814,0.378831
2980.4456,0.379154
2981.4099,0.37952
2982.3740,0.379924
2983.3384,0.380372
2984.3025,0.380885
2985.2668,0.381499
2986.2310,0.382254
2987.1953,0.383175
2988.1594,0.384259
2989.1238,0.385477
2990.0879,0.386792
2991.0522,0.388174
2992.0164,0.389612
2992.9807,0.391112
2993.9448,0.392688
2994.9092,0.394356
2995.8733,0.396123
2996.8376,0.397987
2997.8018,0.399938
2998.7661,0.401958
2999.7302,0.404032
3000.6946,0.406162
3001.6587,0.408364
3002.6230,0.410663
3003.5872,0.413074
3004.5515,0.415586
3005.5156,0.418168
3006.4800,0.420783
3007.4441,0.423408
3008.4084,0.426045
3009.3726,0.428703
3010.3369,0.431396
3011.3010,0.434128
3012.2654,0.436906
3013.2295,0.439748
3014.1938,0.442673
3015.1580,0.445696
3016.1223,0.448802
3017.0864,0.451952
3018.0508,0.455096
3019.0149,0.458202
3019.9792,0.461274
3020.9434,0.464346
3021.9077,0.467463
3022.8718,0.47066
3023.8362,0.473953
3024.8003,0.47733
3025.7646,0.480761
3026.7288,0.484205
3027.6931,0.48762
3028.6572,0.490982
3029.6216,0.494298
3030.5857,0.49762
3031.5500,0.501027
3032.5142,0.504589
3033.4785,0.508329
3034.4426,0.512194
3035.4070,0.516076
3036.3711,0.519858
3037.3354,0.523476
3038.2996,0.526958
3039.2639,0.530417
3040.2280,0.533995
3041.1924,0.537787
3042.1565,0.54179
3043.1208,0.545894
3044.0850,0.549945
3045.0493,0.553827
3046.0134,0.557526
3046.9778,0.561147
3047.9419,0.564847
3048.9063,0.568755
3049.8704,0.57289
3050.8347,0.57716
3051.7988,0.581418
3052.7632,0.585547
3053.7273,0.589527
3054.6917,0.59343
3055.6558,0.59737
3056.6201,0.601428
3057.5842,0.605601
3058.5486,0.609812
3059.5127,0.613967
3060.4771,0.618015
3061.4412,0.621985
3062.4055,0.625964
3063.3696,0.630061
3064.3340,0.634347
3065.2981,0.63883
3066.2625,0.643453
3067.2266,0.648127
3068.1909,0.652771
3069.1550,0.657335
3070.1194,0.661806
3071.0835,0.666182
3072.0479,0.670454
3073.0120,0.67461
3073.9763,0.67865
3074.9404,0.68263
3075.9048,0.686667
3076.8689,0.69091
3077.8333,0.69547
3078.7974,0.700353
3079.7617,0.705435
3080.7258,0.710512
3081.6902,0.715394
3082.6543,0.719997
3083.6187,0.724367
3084.5828,0.728634
3085.5471,0.732941
3086.5112,0.737379
3087.4756,0.741974
3088.4397,0.746692
3089.4041,0.75148
3090.3682,0.75628
3091.3325,0.761045
3092.2966,0.765745
3093.2610,0.770376
3094.2251,0.774967
3095.1895,0.779576
3096.1536,0.784267
3097.1179,0.789079
3098.0820,0.794008
3099.0464,0.79901
3100.0105,0.804011
3100.9749,0.808938
3101.9390,0.813736
3102.9033,0.818387
3103.8674,0.822924
3104.8318,0.827428
3105.7959,0.832017
3106.7603,0.836805
3107.7244,0.841848
3108.6887,0.847094
3109.6528,0.852382
3110.6172,0.857497
3111.5813,0.862271
3112.5457,0.866667
3113.5098,0.870793
3114.4741,0.874854
3115.4382,0.879054
3116.4026,0.883523
3117.3667,0.888286
3118.3311,0.89329
3119.2952,0.898445
3120.2595,0.903657
3121.2236,0.908827
3122.1880,0.913874
3123.1521,0.91875
3124.1165,0.923481
3125.0806,0.928162
3126.0449,0.932925
3127.0090,0.937872
3127.9734,0.943014
3128.9375,0.948266
3129.9019,0.953482
3130.8660,0.958512
3131.8303,0.963256
3132.7944,0.967697
3133.7588,0.971907
3134.7229,0.976029
3135.6873,0.98024
3136.6514,0.984697
3137.6157,0.98949
3138.5798,0.994597
3139.5442,0.999895
3140.5083,1.00521
3141.4727,1.01038
3142.4368,1.01536
3143.4011,1.02016
3144.3652,1.02481
3145.3296,1.02931
3146.2937,1.0336
3147.2581,1.03759
3148.2222,1.04133
3149.1865,1.04499
3150.1506,1.04885
3151.1150,1.05315
3152.0791,1.05794
3153.0435,1.06308
3154.0076,1.06828
3154.9719,1.07324
3155.9360,1.07783
3156.9004,1.08209
3157.8645,1.08617
3158.8289,1.09027
3159.7930,1.09446
3160.7573,1.09877
3161.7214,1.10314
3162.6858,1.1075
3163.6499,1.11183
3164.6143,1.11612
3165.5784,1.12034
3166.5427,1.1245
3167.5068,1.12858
3168.4712,1.1326
3169.4353,1.13744
3170.3997,1.14139
3171.3638,1.14529
3172.3281,1.14912
3173.2922,1.15286
3174.2566,1.1565
3175.2207,1.1601
3176.1851,1.16373
3177.1492,1.16744
3178.1135,1.17126
3179.0776,1.17516
3180.0420,1.17908
3181.0061,1.18292
3181.9705,1.18658
3182.9346,1.18998
3183.8989,1.19313
3184.8630,1.19609
3185.8274,1.19896
3186.7915,1.2019
3187.7559,1.20501
3188.7200,1.2083
3189.6843,1.21174
3190.6484,1.21522
3191.6128,1.21865
3192.5769,1.22196
3193.5413,1.22513
3194.5054,1.22815
3195.4697,1.23102
3196.4338,1.23377
3197.3982,1.23649
3198.3623,1.23921
3199.3267,1.24196
3200.2908,1.24468
3201.2551,1.24731
3202.2192,1.24977
3203.1836,1.25213
3204.1477,1.25452
3205.1121,1.2571
3206.0762,1.25988
3207.0405,1.26273
3208.0046,1.26539
3208.9690,1.26763
3209.9331,1.26943
3210.8975,1.27098
3211.8616,1.27257
3212.8259,1.27437
3213.7900,1.27637
3214.7544,1.27839
3215.7185,1.28025
3216.6829,1.28189
3217.6470,1.28343
3218.6113,1.28505
3219.5754,1.28691
3220.5398,1.28902
3221.5039,1.29126
3222.4683,1.29345
3223.4324,1.29541
3224.3967,1.29704
3225.3608,1.29825
3226.3252,1.29901
3227.2893,1.29931
3228.2537,1.29929
3229.2178,1.29924
3230.1821,1.2995
3231.1462,1.3004
3232.1106,1.30206
3233.0747,1.30435
3234.0391,1.30688
3235.0032,1.30918
3235.9675,1.31087
3236.9316,1.31183
3237.8960,1.31217
3238.8601,1.31211
3239.8245,1.31191
3240.7886,1.31171
3241.7529,1.31162
3242.7170,1.31172
3243.6814,1.31212
3244.6455,1.31294
3245.6099,1.31415
3246.5740,1.3156
3247.5383,1.31696
3248.5024,1.31794
3249.4668,1.31832
3250.4309,1.31813
3251.3953,1.31758
3252.3594,1.31695
3253.3237,1.31651
3254.2878,1.31642
3255.2522,1.31669
3256.2163,1.31721
3257.1807,1.31782
3258.1448,1.31837
3259.1091,1.31877
3260.0732,1.31902
3261.0376,1.31917
3262.0017,1.31924
3262.9661,1.3192
3263.9302,1.31893
3264.8945,1.31833
3265.8586,1.31738
3266.8230,1.3162
3267.7871,1.31503
3268.7515,1.31414
3269.7156,1.31366
3270.6799,1.31358
3271.6440,1.31373
3272.6084,1.31388
3273.5725,1.31382
3274.5369,1.31346
3275.5010,1.31283
3276.4653,1.31207
3277.4294,1.31135
3278.3938,1.31082
3279.3579,1.31056
3280.3223,1.3105
3281.2864,1.3105
3282.2507,1.3104
3283.2148,1.31004
3284.1792,1.3094
3285.1433,1.3085
3286.1077,1.30742
3287.0718,1.30623
3288.0361,1.305
3289.0002,1.30376
3289.9646,1.30259
3290.9287,1.30154
3291.8931,1.30066
3292.8572,1.29999
3293.8215,1.29954
3294.7856,1.29929
3295.7500,1.29915
3296.7141,1.29898
3297.6785,1.29861
3298.6426,1.29787
3299.6069,1.29669
3300.5710,1.29517
3301.5354,1.29351
3302.4995,1.29193
3303.4639,1.29058
3304.4280,1.2895
3305.3923,1.28865
3306.3564,1.28799
3307.3208,1.28749
3308.2849,1.28714
3309.2493,1.2869
3310.2134,1.28662
3311.1777,1.28618
3312.1418,1.28546
3313.1062,1.28448
3314.0703,1.28337
3315.0347,1.28227
3315.9988,1.28129
3316.9631,1.28044
3317.9272,1.27961
3318.8916,1.27866
3319.8557,1.27749
3320.8201,1.27607
3321.7842,1.27451
3322.7485,1.273
3323.7126,1.27169
3324.6770,1.27067
3325.6411,1.2699
3326.6055,1.26922
3327.5696,1.26844
3328.5339,1.26743
3329.4980,1.26616
3330.4624,1.26468
3331.4265,1.26302
3332.3909,1.26122
3333.3550,1.25932
3334.3193,1.25739
3335.2834,1.25557
3336.2478,1.25396
3337.2119,1.2526
3338.1763,1.25142
3339.1404,1.25031
3340.1047,1.24917
3341.0688,1.24798
3342.0332,1.24676
3342.9973,1.24547
3343.9617,1.24402
3344.9258,1.24224
3345.8901,1.24008
3346.8542,1.23766
3347.8186,1.23527
3348.7827,1.23327
3349.7471,1.23185
3350.7112,1.23095
3351.6755,1.23024
3352.6396,1.22931
3353.6040,1.22779
3354.5681,1.22559
3355.5325,1.22289
3356.4966,1.22008
3357.4609,1.21754
3358.4250,1.21547
3359.3894,1.21382
3360.3535,1.2123
3361.3179,1.21051
3362.2820,1.20815
3363.2463,1.20518
3364.2104,1.20185
3365.1748,1.19859
3366.1389,1.1958
3367.1033,1.19372
3368.0674,1.19225
3369.0317,1.19107
3369.9958,1.18972
3370.9602,1.18782
3371.9243,1.18522
3372.8887,1.18201
3373.8528,1.1785
3374.8171,1.17507
3375.7813,1.17204
3376.7456,1.16954
3377.7097,1.1675
3378.6741,1.16572
3379.6382,1.16395
3380.6025,1.16199
3381.5667,1.15973
3382.5310,1.15713
3383.4951,1.15421
3384.4595,1.15099
3385.4236,1.1475
3386.3879,1.14381
3387.3521,1.14005
3388.3164,1.13637
3389.2805,1.13296
3390.2449,1.12995
3391.2090,1.12734
3392.1733,1.12501
3393.1375,1.12265
3394.1018,1.11995
3395.0659,1.11673
3396.0303,1.11303
3396.9944,1.10907
3397.9587,1.1052
3398.9229,1.10168
3399.8872,1.09857
3400.8513,1.09572
3401.8157,1.09287
3402.7798,1.08982
3403.7441,1.08647
3404.7083,1.08291
3405.6726,1.07928
3406.6367,1.07568
3407.6011,1.07216
3408.5652,1.06871
3409.5295,1.06532
3410.4937,1.06201
3411.4580,1.05881
3412.4221,1.05572
3413.3865,1.05264
3414.3506,1.04947
3415.3149,1.04612
3416.2791,1.04257
3417.2434,1.03888
3418.2075,1.03514
3419.1719,1.03141
3420.1360,1.02771
3421.1003,1.02397
3422.0645,1.02012
3423.0288,1.01614
3423.9929,1.01207
3424.9573,1.00802
3425.9214,1.00411
3426.8857,1.00038
3427.8499,0.996778
3428.8142,0.993159
3429.7783,0.98935
3430.7427,0.985246
3431.7068,0.980886
3432.6711,0.976452
3433.6353,0.972205
3434.5996,0.968362
3435.5637,0.964995
3436.5281,0.961992
3437.4922,0.959102
3438.4565,0.956045
3439.4207,0.952634
3440.3850,0.948843
3441.3491,0.9448
3442.3135,0.940696
3443.2776,0.936687
3444.2419,0.932828
3445.2061,0.929081
3446.1704,0.925363
3447.1345,0.921604
3448.0989,0.917777
3449.0630,0.913897
3450.0273,0.910014
3450.9915,0.906173
3451.9558,0.902382
3452.9199,0.898595
3453.8843,0.894725
3454.8484,0.8907
3455.8127,0.886521
3456.7769,0.882286
3457.7412,0.878149
3458.7053,0.874224
3459.6697,0.870507
3460.6338,0.866843
3461.5981,0.86301
3462.5623,0.858843
3463.5266,0.854355
3464.4907,0.849732
3465.4551,0.845237
3466.4192,0.841078
3467.3835,0.837322
3468.3477,0.833878
3469.3120,0.830558
3470.2761,0.827156
3471.2405,0.823516
3472.2046,0.819568
3473.1689,0.815351
3474.1331,0.811011
3475.0974,0.806761
3476.0615,0.802787
3477.0259,0.79916
3477.9900,0.795789
3478.9543,0.79245
3479.9185,0.78889
3480.8828,0.784959
3481.8469,0.780686
3482.8113,0.776249
3483.7754,0.771853
3484.7397,0.767622
3485.7039,0.763565
3486.6682,0.759618
3487.6323,0.755693
3488.5967,0.751721
3489.5608,0.74766
3490.5251,0.743487
3491.4893,0.739206
3492.4536,0.734845
3493.4177,0.730458
3494.3821,0.72612
3495.3462,0.721913
3496.3105,0.717896
3497.2747,0.714086
3498.2390,0.71045
3499.2031,0.706905
3500.1675,0.703333
3501.1316,0.699617
3502.0959,0.695711
3503.0601,0.691667
3504.0244,0.687582
3504.9885,0.683511
3505.9529,0.679439
3506.9170,0.675288
3507.8813,0.670987
3508.8455,0.666553
3509.8098,0.662132
3510.7739,0.657915
3511.7383,0.653997
3512.7024,0.65031
3513.6667,0.646668
3514.6309,0.642866
3515.5952,0.638775
3516.5593,0.634403
3517.5237,0.629885
3518.4878,0.625409
3519.4521,0.621124
3520.4163,0.61709
3521.3806,0.613278
3522.3447,0.609604
3523.3091,0.605953
3524.2732,0.602201
3525.2375,0.598229
3526.2017,0.593955
3527.1660,0.589378
3528.1301,0.584591
3529.0945,0.579758
3530.0586,0.575033
3531.0229,0.570505
3531.9871,0.566187
3532.9514,0.56204
3533.9155,0.558012
3534.8799,0.554054
3535.8440,0.550117
3536.8083,0.546135
3537.7725,0.542039
3538.7368,0.537823
3539.7009,0.533582
3540.6653,0.529478
3541.6294,0.525628
3542.5938,0.522006
3543.5579,0.518434
3544.5222,0.514664
3545.4863,0.510529
3546.4507,0.506046
3547.4148,0.501407
3548.3792,0.496858
3549.3433,0.492565
3550.3076,0.488539
3551.2717,0.484657
3552.2361,0.480766
3553.2002,0.476779
3554.1646,0.472707
3555.1287,0.46862
3556.0930,0.464572
3557.0571,0.460544
3558.0215,0.456466
3558.9856,0.452316
3559.9500,0.448226
3560.9141,0.444456
3561.8784,0.44125
3562.8425,0.43865
3563.8069,0.436381
3564.7710,0.433903
3565.7354,0.430711
3566.6995,0.426673
3567.6638,0.421996
3568.6279,0.416915
3569.5923,0.411664
3570.5564,0.406515
3571.5208,0.401662
3572.4849,0.397121
3573.4492,0.392797
3574.4133,0.388611
3575.3777,0.38456
3576.3418,0.380671
3577.3062,0.37691
3578.2703,0.373177
3579.2346,0.369389
3580.1987,0.365585
3581.1631,0.361971
3582.1272,0.35882
3583.0916,0.356289
3584.0557,0.354245
3585.0200,0.352238
3585.9841,0.349727
3586.9485,0.346451
3587.9126,0.342535
3588.8770,0.338266
3589.8411,0.333948
3590.8054,0.329848
3591.7695,0.326052
3592.7339,0.322401
3593.6980,0.31864
3594.6624,0.314647
3595.6265,0.3105
3596.5908,0.306348
3597.5549,0.302283
3598.5193,0.298324
3599.4834,0.29448
3600.4478,0.290814
3601.4119,0.287429
3602.3762,0.284411
3603.3403,0.281784
3604.3047,0.279469
3605.2688,0.277276
3606.2332,0.274976
3607.1973,0.272426
3608.1616,0.269598
3609.1257,0.266464
3610.0901,0.262947
3611.0542,0.259032
3612.0186,0.254906
3612.9827,0.250935
3613.9470,0.247497
3614.9111,0.244742
3615.8755,0.242493
3616.8396,0.240342
3617.8040,0.237875
3618.7681,0.234906
3619.7324,0.231505
3620.6965,0.227831
3621.6609,0.22412
3622.6250,0.220786
3623.5894,0.218319
3624.5535,0.216972
3625.5178,0.216512
3626.4819,0.216176
3627.4463,0.21502
3628.4104,0.212533
3629.3748,0.208805
3630.3389,0.204165
3631.3032,0.199115
3632.2673,0.194245
3633.2317,0.189915
3634.1958,0.186132
3635.1602,0.182694
3636.1243,0.179396
3637.0886,0.17615
3638.0527,0.172978
3639.0171,0.16994
3639.9812,0.167081
3640.9456,0.164425
3641.9097,0.162023
3642.8740,0.159965
3643.8381,0.158335
3644.8025,0.157071
3645.7666,0.155844
3646.7310,0.154173
3647.6951,0.15206
3648.6594,0.150365
3649.6235,0.149319
3650.5879,0.147635
3651.5520,0.144635
3652.5164,0.140963
3653.4805,0.137405
3654.4448,0.134224
3655.4089,0.131259
3656.3733,0.128283
3657.3374,0.125235
3658.3018,0.122232
3659.2659,0.119475
3660.2302,0.117109
3661.1943,0.115108
3662.1587,0.113318
3663.1228,0.111615
3664.0872,0.110058
3665.0513,0.108837
3666.0156,0.108076
3666.9797,0.107674
3667.9441,0.107362
3668.9082,0.106957
3669.8726,0.106408
3670.8367,0.105649
3671.8010,0.104638
3672.7651,0.103403
3673.7295,0.101911
3674.6936,0.10016
3675.6580,0.0983333
3676.6221,0.0964568
3677.5864,0.0942646
3678.5505,0.0917702
3679.5149,0.0893696
3680.4790,0.0874131
3681.4434,0.0859869
3682.4075,0.0850035
3683.3718,0.0843658
3684.3359,0.084022
3685.3003,0.0838793
3686.2644,0.0837086
3687.2288,0.0832644
3688.1929,0.0826529
3689.1572,0.0823732
3690.1213,0.0825221
3691.0857,0.0824646
3692.0498,0.0817264
3693.0142,0.0804442
3693.9783,0.0789932
3694.9426,0.0776515
3695.9067,0.0765464
3696.8711,0.0757181
3697.8352,0.0751726
3698.7996,0.0749005
3699.7637,0.0748791
3700.7280,0.075055
3701.6921,0.0752859
3702.6565,0.0753179
3703.6206,0.0749399
3704.5850,0.0741804
3705.5491,0.0732788
3706.5134,0.07247
3707.4775,0.0718248
3708.4419,0.071308
3709.4060,0.0710435
3710.3704,0.0714296
3711.3345,0.0725401
3712.2988,0.0735234
3713.2629,0.0734174
3714.2273,0.072151
3715.1914,0.0703204
3716.1558,0.0685579
3717.1199,0.0672419
3718.0842,0.066506
3719.0483,0.0663381
3720.0127,0.0666481
3720.9768,0.0672941
3721.9412,0.0681124
3722.9053,0.06896
3723.8696,0.0697278
3724.8337,0.0703054
3725.7981,0.0705634
3726.7622,0.0704223
3727.7266,0.0699453
3728.6907,0.069315
3729.6550,0.0687044
3730.6191,0.0681753
3731.5835,0.0677038
3732.5476,0.0673347
3733.5120,0.0673313
3734.4761,0.0679501
3735.4404,0.0687814
3736.4045,0.0687864
3737.3689,0.0674841
3738.3330,0.0655021
3739.2974,0.0639266
3740.2615,0.0635552
3741.2258,0.0645642
3742.1899,0.0664866
3743.1543,0.0684278
3744.1184,0.0694632
3745.0828,0.0690467
3746.0469,0.0673123
3747.0112,0.0649866
3747.9753,0.0628499
3748.9397,0.0614154
3749.9038,0.0610663
3750.8682,0.0618777
3751.8323,0.0629122
3752.7966,0.0628759
3753.7607,0.0616117
3754.7251,0.0599057
3755.6892,0.0585167
3756.6536,0.0577837
3757.6177,0.0576939
3758.5820,0.0579993
3759.5461,0.0583044
3760.5105,0.0582875
3761.4746,0.0579302
3762.4390,0.0574657
3763.4031,0.0571415
3764.3674,0.057058
3765.3315,0.0571524
3766.2959,0.0572787
3767.2600,0.0573243
3768.2244,0.0572963
3769.1885,0.0572996
3770.1528,0.0573944
3771.1169,0.0574759
3772.0813,0.0573481
3773.0454,0.0569219
3774.0098,0.0562876
3774.9739,0.055621
3775.9382,0.0550745
3776.9023,0.0547615
3777.8667,0.0547676
3778.8308,0.0550631
3779.7952,0.0554109
3780.7593,0.0555043
3781.7236,0.0552224
3782.6877,0.0546933
3783.6521,0.0541679
3784.6162,0.0538633
3785.5806,0.0538501
3786.5447,0.0540274
3787.5090,0.054204
3788.4731,0.0542301
3789.4375,0.0540747
3790.4016,0.0538049
3791.3660,0.0535117
3792.3301,0.0532416
3793.2944,0.0529807
3794.2585,0.0526958
3795.2229,0.0523907
3796.1870,0.0521248
3797.1514,0.0519856
3798.1155,0.0520523
3799.0798,0.0523876
3800.0439,0.0530326
3801.0083,0.0539011
3801.9724,0.0546486
3802.9368,0.0548788
3803.9009,0.0545482
3804.8652,0.0539884
3805.8293,0.0535962
3806.7937,0.0535516
3807.7578,0.0536648
3808.7222,0.0535151
3809.6863,0.0528996
3810.6506,0.0520422
3811.6147,0.0513207
3812.5791,0.0509391
3813.5432,0.0508635
3814.5076,0.0509618
3815.4717,0.0511091
3816.4360,0.0511711
3817.4001,0.0510595
3818.3645,0.0508576
3819.3286,0.0508132
3820.2930,0.051148
3821.2571,0.0517454
3822.2214,0.0520982
3823.1855,0.0518077
3824.1499,0.0509791
3825.1140,0.0500339
3826.0784,0.0493499
3827.0425,0.049087
3828.0068,0.0491948
3828.9709,0.0495099
3829.9353,0.0498723
3830.8994,0.0501952
3831.8638,0.0504579
3832.8279,0.0506517
3833.7922,0.050734
3834.7563,0.0506287
3835.7207,0.0502874
3836.6848,0.0497881
3837.6492,0.0493643
3838.6133,0.0492279
3839.5776,0.0493417
3840.5417,0.0494951
3841.5061,0.049574
3842.4702,0.0496205
3843.4346,0.0496791
3844.3987,0.0496791
3845.3630,0.0494871
3846.3271,0.0490614
3847.2915,0.0485387
3848.2556,0.0481587
3849.2200,0.0480939
3850.1841,0.0483322
3851.1484,0.0487957
3852.1125,0.0497738
3853.0769,0.0518417
3854.0410,0.0543016
3855.0054,0.0552912
3855.9697,0.0543196
3856.9338,0.0523403
3857.8982,0.0503404
3858.8623,0.0487803
3859.8267,0.047699
3860.7908,0.0469872
3861.7551,0.0466282
3862.7192,0.046742
3863.6836,0.0473517
3864.6477,0.0481908
3865.6121,0.0488913
3866.5762,0.04926
3867.5405,0.0493059
3868.5046,0.0491436
3869.4690,0.048941
3870.4331,0.0488737
3871.3975,0.0490192
3872.3616,0.0492904
3873.3259,0.0495199
3874.2900,0.0495986
3875.2544,0.0495217
3876.2185,0.0493371
3877.1829,0.0490816
3878.1470,0.0487665
3879.1113,0.0484175
3880.0754,0.0481085
3881.0398,0.0479355
3882.0039,0.0479737
3882.9683,0.0482643
3883.9324,0.0487817
3884.8967,0.0493586
3885.8608,0.0496882
3886.8252,0.0495028
3887.7893,0.0487854
3888.7537,0.0477908
3889.7178,0.046908
3890.6821,0.0465071
3891.6462,0.0467298
3892.6106,0.0472901
3893.5747,0.0476729
3894.5391,0.0476221
3895.5032,0.0472656
3896.4675,0.0468637
3897.4316,0.0466048
3898.3960,0.0465758
3899.3601,0.0467849
3900.3245,0.0471638
3901.2886,0.0476099
3902.2529,0.0480759
3903.2170,0.0485618
3904.1814,0.0489861
3905.1455,0.0491608
3906.1099,0.0489651
3907.0740,0.0484765
3908.0383,0.0479009
3909.0024,0.0474229
3909.9668,0.0471175
3910.9309,0.0469474
3911.8953,0.0468177
3912.8594,0.0466518
3913.8237,0.0464502
3914.7878,0.0463037
3915.7522,0.0463522
3916.7163,0.0466779
3917.6807,0.0471762
3918.6448,0.0475619
3919.6091,0.0475727
3920.5732,0.047166
3921.5376,0.0465212
3922.5017,0.0459145
3923.4661,0.0455711
3924.4302,0.0455343
3925.3945,0.0456316
3926.3586,0.0456173
3927.3230,0.0453722
3928.2871,0.044974
3929.2515,0.0446338
3930.2156,0.044583
3931.1799,0.0449355
3932.1440,0.0455755
3933.1084,0.0462037
3934.0725,0.0465518
3935.0369,0.0465409
3936.0010,0.0462566
3936.9653,0.0458331
3937.9294,0.0453739
3938.8938,0.0449422
3939.8579,0.0445921
3940.8223,0.0443926
3941.7864,0.0444019
3942.7507,0.0446021
3943.7148,0.0448726
3944.6792,0.0450591
3945.6433,0.0450722
3946.6077,0.0449293
3947.5718,0.044731
3948.5361,0.0445987
3949.5002,0.0445955
3950.4646,0.0446808
3951.4287,0.0447497
3952.3931,0.0447181
3953.3572,0.0445709
3954.3215,0.0443523
3955.2856,0.0441289
3956.2500,0.0439566
3957.2141,0.0438604
3958.1785,0.0438372
3959.1426,0.0438717
3960.1069,0.0439518
3961.0710,0.0440692
3962.0354,0.044209
3962.9995,0.0443408
3963.9639,0.0444233
3964.9280,0.0444181
3965.8923,0.0443037
3966.8564,0.044082
3967.8208,0.0437795
3968.7849,0.0434432
3969.7493,0.04313
3970.7134,0.0428919
3971.6777,0.0427597
3972.6418,0.0427343
3973.6062,0.0427865
3974.5703,0.042868
3975.5347,0.0429291
3976.4988,0.0429363
3977.4631,0.0428808
3978.4272,0.042774
3979.3916,0.042638
3980.3557,0.0424968
3981.3201,0.0423694
3982.2842,0.0422648
3983.2485,0.0421771
3984.2126,0.042091
3985.1770,0.0419955
3986.1411,0.0418994
3987.1055,0.0418321
3988.0696,0.0418235
3989.0339,0.0418707
3989.9980,0.0419208
3990.9624,0.04189
3991.9265,0.0417162
3992.8909,0.0414088
3993.8550,0.0410541
3994.8193,0.0407681
3995.7834,0.040626
3996.7478,0.0406191
3997.7119,0.0406689
3998.6763,0.0406847
3999.6404,0.0406195
4000.6047,0.0399925
,
##### Extended Information,
[Comments],
Sample name,
Comment,
User,
Division,
Company,
,
[Detailed Information],
Creation date,2/15/2019 4:22 PM
,
Data array type,Linear data array
Horizontal axis,Wavenumber [cm-1]
Vertical axis,Abs
Start,399.193 cm-1
End,4000.6 cm-1
Data interval,0.964233 cm-1
Data points,3736
,
[Measurement Information],
Model Name,FT/IR-6600typeA
Serial Number,A020461790
,
Accessory,ATR PRO ONE
Accessory S/N,B084261809
Incident angle,45 deg
,
Measurement Date,2/15/2019 4:15 PM
,
Light Source,Standard
Detector,TGS
Accumulation,120
Resolution,4 cm-1
Zero Filling,On
Apodization,Cosine
Gain,Auto (8)
Aperture,Auto (7.1 mm)
Scanning Speed,Auto (2 mm/sec)
Filter,Auto (10000 Hz)